0.0	7409895.0
1.0	7768122.0
2.0	7595859.0
3.0	7961674.0
4.0	7828517.0
5.0	8093681.0
6.0	8049244.0
7.0	8009768.0
8.0	8072059.0
9.0	7762347.0
10.0	7945785.0
11.0	7578080.0
12.0	7834515.0
13.0	7669140.0
14.0	7573621.0
15.0	7640810.0
16.0	7434359.0
17.0	7588193.0
18.0	7252108.0
19.0	7524253.0
20.0	7314346.0
21.0	7717250.0
22.0	7749175.0
23.0	7758952.0
24.0	7993267.0
25.0	7926000.0
26.0	8233467.0
27.0	8027901.0
28.0	8278736.0
29.0	7971189.0
30.0	7927079.0
31.0	7834880.0
32.0	7479588.0
33.0	7571386.0
34.0	7239125.0
35.0	7501678.0
36.0	7145093.0
37.0	7315936.0
38.0	7260251.0
39.0	7212427.0
40.0	7374665.0
41.0	7324724.0
42.0	7754436.0
43.0	7623447.0
44.0	7957597.0
45.0	7694826.0
46.0	7792466.0
47.0	7895019.0
48.0	7810767.0
49.0	7961632.0
50.0	7670752.0
51.0	7951683.0
52.0	7539742.0
53.0	7510241.0
54.0	7370228.0
55.0	7223427.0
56.0	7222354.0
57.0	6964689.0
58.0	7228546.0
59.0	6955617.0
60.0	7320951.0
61.0	7311909.0
62.0	7484279.0
63.0	7554745.0
64.0	7438528.0
65.0	7643115.0
66.0	7452471.0
67.0	7886992.0
68.0	7809260.0
69.0	7954861.0
70.0	7690345.0
71.0	7593229.0
72.0	7526840.0
73.0	7288918.0
74.0	7424772.0
75.0	7019585.0
76.0	7123582.0
77.0	6789515.0
78.0	6914996.0
79.0	6980144.0
80.0	7096293.0
81.0	7389192.0
82.0	7288907.0
83.0	7727708.0
84.0	7525174.0
85.0	7770890.0
86.0	7699713.0
87.0	7716760.0
88.0	7750043.0
89.0	7561171.0
90.0	7844925.0
91.0	7407525.0
92.0	7485284.0
93.0	7196355.0
94.0	7289163.0
95.0	7189811.0
96.0	6978973.0
97.0	7218202.0
98.0	6929762.0
99.0	7179319.0
100.0	6926312.0
101.0	7286868.0
102.0	7231939.0
103.0	7354554.0
104.0	7499275.0
105.0	7443365.0
106.0	7815946.0
107.0	7655256.0
108.0	7878384.0
109.0	7605950.0
110.0	7641673.0
111.0	7495724.0
112.0	7419768.0
113.0	7359136.0
114.0	7009132.0
115.0	7075728.0
116.0	6653709.0
117.0	7110914.0
118.0	6772618.0
119.0	6949796.0
120.0	7167260.0
121.0	7314612.0
122.0	7707846.0
123.0	7498600.0
124.0	7818913.0
125.0	7569635.0
126.0	7855529.0
127.0	7658538.0
128.0	7644327.0
129.0	7615815.0
130.0	7229922.0
131.0	7396533.0
132.0	6873659.0
133.0	7001037.0
134.0	6586859.0
135.0	6487154.0
136.0	6169292.0
137.0	5972434.0
138.0	6078775.0
139.0	5875567.0
140.0	6221759.0
141.0	5936561.0
142.0	6371245.0
143.0	6282121.0
144.0	6632372.0
145.0	6815522.0
146.0	6931545.0
147.0	7320045.0
148.0	6931661.0
149.0	7193521.0
150.0	6942966.0
151.0	7041237.0
152.0	6866958.0
153.0	6710132.0
154.0	6623283.0
155.0	6247652.0
156.0	6268872.0
157.0	5995693.0
158.0	6343819.0
159.0	6304839.0
160.0	6848117.0
161.0	7271524.0
162.0	7654281.0
163.0	8092612.0
164.0	8308970.0
165.0	8968776.0
166.0	9008888.0
167.0	9307454.0
168.0	9340365.0
169.0	9346194.0
170.0	9315692.0
171.0	9091428.0
172.0	9046428.0
173.0	8585572.0
174.0	8747732.0
175.0	8479190.0
176.0	8555958.0
177.0	8351303.0
178.0	8079013.0
179.0	8245098.0
180.0	8140865.0
181.0	8528942.0
182.0	8052371.0
183.0	8249473.0
184.0	8116270.0
185.0	8110124.0
186.0	8078120.0
187.0	7857400.0
188.0	8152112.0
189.0	7837010.0
190.0	7924406.0
191.0	7554415.0
192.0	7672633.0
193.0	7487199.0
194.0	7207864.0
195.0	7244167.0
196.0	6934592.0
197.0	7227670.0
198.0	6949607.0
199.0	7170365.0
200.0	7041033.0
201.0	7280843.0
202.0	7448013.0
203.0	7381080.0
204.0	7746713.0
205.0	7498056.0
206.0	7814835.0
207.0	7635792.0
208.0	7815130.0
209.0	7663352.0
210.0	7531326.0
211.0	7582721.0
212.0	7279921.0
213.0	7513423.0
214.0	7132891.0
215.0	7181108.0
216.0	6937059.0
217.0	6955568.0
218.0	7055042.0
219.0	7035046.0
220.0	7224891.0
221.0	6914150.0
222.0	7288253.0
223.0	7185681.0
224.0	7546415.0
225.0	7604604.0
226.0	7615294.0
227.0	7763306.0
228.0	7507907.0
229.0	7756832.0
230.0	7433298.0
231.0	7618153.0
232.0	7299675.0
233.0	7310584.0
234.0	7067794.0
235.0	6878370.0
236.0	7060152.0
237.0	6774757.0
238.0	7022042.0
239.0	6770727.0
240.0	6877764.0
241.0	6955619.0
242.0	7220954.0
243.0	7229530.0
244.0	7276100.0
245.0	7628806.0
246.0	7552838.0
247.0	7909467.0
248.0	7649459.0
249.0	7715282.0
250.0	7494326.0
251.0	7362075.0
252.0	7326974.0
253.0	6909524.0
254.0	7110601.0
255.0	6997948.0
256.0	7083279.0
257.0	6750703.0
258.0	6806564.0
259.0	6889582.0
260.0	6961933.0
261.0	7263906.0
262.0	7044400.0
263.0	7361598.0
264.0	7249647.0
265.0	7563050.0
266.0	7499849.0
267.0	7478512.0
268.0	7492132.0
269.0	7368269.0
270.0	7529883.0
271.0	7150901.0
272.0	7224344.0
273.0	7078690.0
274.0	7071311.0
275.0	6864135.0
276.0	6651309.0
277.0	6787831.0
278.0	6487086.0
279.0	6835694.0
280.0	6565603.0
281.0	6934301.0
282.0	7107229.0
283.0	7259693.0
284.0	7358367.0
285.0	7238788.0
286.0	7671924.0
287.0	7469360.0
288.0	7670490.0
289.0	7340803.0
290.0	7396031.0
291.0	7307677.0
292.0	7119270.0
293.0	7132812.0
294.0	6835677.0
295.0	6950193.0
296.0	6419059.0
297.0	6591530.0
298.0	6490026.0
299.0	6569758.0
300.0	6682304.0
301.0	6680507.0
302.0	7104950.0
303.0	6769229.0
304.0	7310315.0
305.0	7247842.0
306.0	7412820.0
307.0	7380210.0
308.0	7363657.0
309.0	7607264.0
310.0	7372538.0
311.0	7468213.0
312.0	6932791.0
313.0	7090420.0
314.0	6860872.0
315.0	6772713.0
316.0	6727536.0
317.0	6556983.0
318.0	6806642.0
319.0	6483294.0
320.0	6893385.0
321.0	6744759.0
322.0	7157619.0
323.0	7048807.0
324.0	7228348.0
325.0	7334269.0
326.0	7172467.0
327.0	7428416.0
328.0	7247918.0
329.0	7538873.0
330.0	7234374.0
331.0	7085484.0
332.0	6993218.0
333.0	6770751.0
334.0	6824284.0
335.0	6547241.0
336.0	6804071.0
337.0	6511465.0
338.0	6829658.0
339.0	6757600.0
340.0	6842870.0
341.0	7013112.0
342.0	6948071.0
343.0	7293354.0
344.0	7040562.0
345.0	7366646.0
346.0	7325357.0
347.0	7584747.0
348.0	7593016.0
349.0	7535170.0
350.0	7633184.0
351.0	7257344.0
352.0	7407812.0
353.0	6986312.0
354.0	7149896.0
355.0	6832308.0
356.0	6943168.0
357.0	6824301.0
358.0	6791284.0
359.0	7028373.0
360.0	6778271.0
361.0	7143270.0
362.0	7091824.0
363.0	7485353.0
364.0	7352700.0
365.0	7662396.0
366.0	7788407.0
367.0	7640631.0
368.0	7781551.0
369.0	7445760.0
370.0	7711362.0
371.0	7414689.0
372.0	7391015.0
373.0	7230982.0
374.0	6997687.0
375.0	6933843.0
376.0	6731412.0
377.0	7241950.0
378.0	7114711.0
379.0	7225969.0
380.0	6977179.0
381.0	7149469.0
382.0	7336911.0
383.0	7216175.0
384.0	7549798.0
385.0	7400363.0
386.0	7834277.0
387.0	7794433.0
388.0	7916705.0
389.0	7886614.0
390.0	7709824.0
391.0	7722555.0
392.0	7440240.0
393.0	7604398.0
394.0	7118601.0
395.0	7403040.0
396.0	7127208.0
397.0	7074367.0
398.0	7016188.0
399.0	6832998.0
400.0	7029252.0
401.0	6962194.0
402.0	7489783.0
403.0	7391222.0
404.0	7598912.0
405.0	7676421.0
406.0	7781594.0
407.0	7942153.0
408.0	7649352.0
409.0	7794027.0
410.0	7359607.0
411.0	7659412.0
412.0	7519871.0
413.0	7342718.0
414.0	7043430.0
415.0	6804270.0
416.0	7317452.0
417.0	6986406.0
418.0	7201197.0
419.0	7031113.0
420.0	7280101.0
421.0	7190276.0
422.0	7244130.0
423.0	7485930.0
424.0	7450791.0
425.0	7880782.0
426.0	7584587.0
427.0	7925883.0
428.0	7675424.0
429.0	7829227.0
430.0	7692394.0
431.0	7502188.0
432.0	7672375.0
433.0	7253663.0
434.0	7285489.0
435.0	6928129.0
436.0	7122942.0
437.0	6882503.0
438.0	6830763.0
439.0	6842400.0
440.0	6911092.0
441.0	7384769.0
442.0	7179189.0
443.0	7535081.0
444.0	7399863.0
445.0	7760146.0
446.0	7744174.0
447.0	7744478.0
448.0	7920577.0
449.0	7777258.0
450.0	8003700.0
451.0	7642513.0
452.0	7654963.0
453.0	7295558.0
454.0	7377616.0
455.0	7139717.0
456.0	6940104.0
457.0	7128967.0
458.0	6946158.0
459.0	7234252.0
460.0	7021223.0
461.0	7302399.0
462.0	7191549.0
463.0	7321620.0
464.0	7461024.0
465.0	7501459.0
466.0	7875397.0
467.0	7573784.0
468.0	7825545.0
469.0	7716950.0
470.0	7871239.0
471.0	7602625.0
472.0	7364143.0
473.0	7341644.0
474.0	7041231.0
475.0	7351643.0
476.0	6929575.0
477.0	7037524.0
478.0	6912330.0
479.0	7017829.0
480.0	7102590.0
481.0	7046604.0
482.0	7409572.0
483.0	7271388.0
484.0	7671284.0
485.0	7453930.0
486.0	7885478.0
487.0	7777093.0
488.0	7847591.0
489.0	7710680.0
490.0	7548809.0
491.0	7808447.0
492.0	7491723.0
493.0	7571593.0
494.0	7138066.0
495.0	7316831.0
496.0	7041776.0
497.0	6972602.0
498.0	7114983.0
499.0	6873506.0
500.0	7171910.0
501.0	7004264.0
502.0	7361310.0
503.0	7293849.0
504.0	7447752.0
505.0	7563210.0
506.0	7625838.0
507.0	7938827.0
508.0	7689441.0
509.0	7930530.0
510.0	7663965.0
511.0	7710842.0
512.0	7397281.0
513.0	7376086.0
514.0	7262485.0
515.0	7052884.0
516.0	7159864.0
517.0	6751151.0
518.0	7095669.0
519.0	6819936.0
520.0	7064011.0
521.0	7286033.0
522.0	7330009.0
523.0	7520058.0
524.0	7482861.0
525.0	7807239.0
526.0	7576542.0
527.0	7940599.0
528.0	7788955.0
529.0	7917529.0
530.0	7749755.0
531.0	7482067.0
532.0	7642441.0
533.0	7159738.0
534.0	7290335.0
535.0	6990357.0
536.0	7033231.0
537.0	6768334.0
538.0	6909942.0
539.0	6988245.0
540.0	6903180.0
541.0	7249613.0
542.0	7039513.0
543.0	7659528.0
544.0	7520373.0
545.0	7700233.0
546.0	7796081.0
547.0	7842587.0
548.0	7961804.0
549.0	7732141.0
550.0	7996440.0
551.0	7543251.0
552.0	7656270.0
553.0	7376718.0
554.0	7467944.0
555.0	7398046.0
556.0	7175460.0
557.0	7251275.0
558.0	6990981.0
559.0	7253194.0
560.0	6977769.0
561.0	7371232.0
562.0	7333624.0
563.0	7530244.0
564.0	7776826.0
565.0	7775083.0
566.0	7988533.0
567.0	7606490.0
568.0	7990461.0
569.0	7681213.0
570.0	7881365.0
571.0	7956349.0
572.0	7752416.0
573.0	7694744.0
574.0	7352244.0
575.0	7604971.0
576.0	7200623.0
577.0	7291998.0
578.0	6975299.0
579.0	7018543.0
580.0	7146586.0
581.0	7116896.0
582.0	7446141.0
583.0	7330287.0
584.0	7763169.0
585.0	7695571.0
586.0	8052485.0
587.0	7791924.0
588.0	7821303.0
589.0	7851800.0
590.0	7626335.0
591.0	7827970.0
592.0	7550920.0
593.0	7771863.0
594.0	7393884.0
595.0	7367794.0
596.0	7057158.0
597.0	6982283.0
598.0	7083763.0
599.0	6844726.0
600.0	7145110.0
601.0	6877121.0
602.0	7256383.0
603.0	7155696.0
604.0	7470085.0
605.0	7597281.0
606.0	7662112.0
607.0	7823367.0
608.0	7601705.0
609.0	7944269.0
610.0	7641427.0
611.0	7842391.0
612.0	7570039.0
613.0	7527798.0
614.0	7397871.0
615.0	7002470.0
616.0	7088773.0
617.0	6824389.0
618.0	7072951.0
619.0	6749164.0
620.0	6953935.0
621.0	6907810.0
622.0	7086100.0
623.0	7322996.0
624.0	7244637.0
625.0	7669756.0
626.0	7479882.0
627.0	7818136.0
628.0	7565365.0
629.0	7656993.0
630.0	7625292.0
631.0	7516613.0
632.0	7612247.0
633.0	7146239.0
634.0	7283599.0
635.0	6796276.0
636.0	7020672.0
637.0	6766831.0
638.0	6866156.0
639.0	6912781.0
640.0	6897590.0
641.0	7167214.0
642.0	6848941.0
643.0	7467474.0
644.0	7211612.0
645.0	7463304.0
646.0	7447489.0
647.0	7479896.0
648.0	7654167.0
649.0	7498085.0
650.0	7617492.0
651.0	7268633.0
652.0	7520939.0
653.0	7246935.0
654.0	7255667.0
655.0	7109407.0
656.0	6761726.0
657.0	6915555.0
658.0	6620086.0
659.0	6965570.0
660.0	6754846.0
661.0	7092725.0
662.0	7048858.0
663.0	7117918.0
664.0	7279999.0
665.0	7342269.0
666.0	7679231.0
667.0	7397179.0
668.0	7763448.0
669.0	7516610.0
670.0	7730144.0
671.0	7577017.0
672.0	7436238.0
673.0	7454481.0
674.0	7096930.0
675.0	7130337.0
676.0	6535831.0
677.0	6799809.0
678.0	6696245.0
679.0	6884880.0
680.0	6982924.0
681.0	6928992.0
682.0	7092200.0
683.0	7096889.0
684.0	7820766.0
685.0	7451710.0
686.0	7555726.0
687.0	7552916.0
688.0	7544784.0
689.0	7682177.0
690.0	7365585.0
691.0	7466517.0
692.0	6974792.0
693.0	6996365.0
694.0	6487252.0
695.0	6499485.0
696.0	6158872.0
697.0	5876770.0
698.0	5994122.0
699.0	5615059.0
700.0	5933659.0
701.0	5694673.0
702.0	6057493.0
703.0	6093441.0
704.0	6411160.0
705.0	6674989.0
706.0	6665252.0
707.0	6975458.0
708.0	6723588.0
709.0	7060105.0
710.0	6843810.0
711.0	7156154.0
712.0	6954828.0
713.0	6781746.0
714.0	6431040.0
715.0	6008856.0
716.0	6096524.0
717.0	5630643.0
718.0	5920687.0
719.0	5990695.0
720.0	6517953.0
721.0	6999429.0
722.0	7349723.0
723.0	7988394.0
724.0	8144907.0
725.0	8768910.0
726.0	8693456.0
727.0	9165729.0
728.0	9228417.0
729.0	9441877.0
730.0	9562668.0
731.0	9217405.0
732.0	9136117.0
733.0	8603286.0
734.0	8865091.0
735.0	8507670.0
736.0	8437957.0
737.0	8296002.0
738.0	8141711.0
739.0	8116376.0
740.0	7801273.0
741.0	8125120.0
742.0	7742918.0
743.0	7918439.0
744.0	7778185.0
745.0	8031613.0
746.0	8038132.0
747.0	8009891.0
748.0	8144612.0
749.0	7833176.0
750.0	7883316.0
751.0	7452701.0
752.0	7667081.0
753.0	7564077.0
754.0	7303556.0
755.0	7127931.0
756.0	6785593.0
757.0	6923095.0
758.0	6742848.0
759.0	7097975.0
760.0	6867899.0
761.0	7079028.0
762.0	7097454.0
763.0	7275585.0
764.0	7540052.0
765.0	7412967.0
766.0	7728432.0
767.0	7362274.0
768.0	7681123.0
769.0	7454670.0
770.0	7695313.0
771.0	7694106.0
772.0	7499749.0
773.0	7500442.0
774.0	7004343.0
775.0	7204951.0
776.0	6879486.0
777.0	7066938.0
778.0	6820348.0
779.0	6707997.0
780.0	6945216.0
781.0	6867189.0
782.0	7164825.0
783.0	6993085.0
784.0	7421825.0
785.0	7276461.0
786.0	7688914.0
787.0	7602650.0
788.0	7485292.0
789.0	7656603.0
790.0	7466207.0
791.0	7629386.0
792.0	7259582.0
793.0	7483516.0
794.0	7122778.0
795.0	7210368.0
796.0	6967767.0
797.0	6784404.0
798.0	6846364.0
799.0	6550933.0
800.0	6897248.0
801.0	6754334.0
802.0	7017402.0
803.0	6952317.0
804.0	7201926.0
805.0	7296286.0
806.0	7342641.0
807.0	7652156.0
808.0	7530351.0
809.0	7863155.0
810.0	7516041.0
811.0	7619852.0
812.0	7372803.0
813.0	7203966.0
814.0	7063438.0
815.0	6809569.0
816.0	6959810.0
817.0	6558784.0
818.0	6764132.0
819.0	6538141.0
820.0	6780245.0
821.0	6782986.0
822.0	6964115.0
823.0	7213052.0
824.0	6988540.0
825.0	7371373.0
826.0	7136795.0
827.0	7603974.0
828.0	7450577.0
829.0	7557367.0
830.0	7638729.0
831.0	7485769.0
832.0	7359825.0
833.0	7034594.0
834.0	7226367.0
835.0	6751758.0
836.0	6891524.0
837.0	6703220.0
838.0	6582015.0
839.0	6605940.0
840.0	6546422.0
841.0	6957546.0
842.0	6815422.0
843.0	7224156.0
844.0	6934672.0
845.0	7259971.0
846.0	7230938.0
847.0	7227154.0
848.0	7390178.0
849.0	7264903.0
850.0	7446547.0
851.0	7119488.0
852.0	7438053.0
853.0	7077988.0
854.0	7098027.0
855.0	6982712.0
856.0	6716498.0
857.0	6756504.0
858.0	6536642.0
859.0	6765486.0
860.0	6430434.0
861.0	6738115.0
862.0	6680011.0
863.0	6882841.0
864.0	6979553.0
865.0	6976077.0
866.0	7386818.0
867.0	7037009.0
868.0	7473561.0
869.0	7351024.0
870.0	7494420.0
871.0	7237440.0
872.0	7219545.0
873.0	7272177.0
874.0	6963813.0
875.0	6942925.0
876.0	6545709.0
877.0	6681877.0
878.0	6444217.0
879.0	6636762.0
880.0	6592691.0
881.0	6522928.0
882.0	6702750.0
883.0	6639657.0
884.0	7204879.0
885.0	7047604.0
886.0	7351727.0
887.0	7144469.0
888.0	7362303.0
889.0	7396273.0
890.0	7364582.0
891.0	7358865.0
892.0	7007035.0
893.0	7191517.0
894.0	6815313.0
895.0	6943231.0
896.0	6739123.0
897.0	6704039.0
898.0	6686222.0
899.0	6497811.0
900.0	6807155.0
901.0	6619145.0
902.0	6891774.0
903.0	6733364.0
904.0	7071814.0
905.0	7305059.0
906.0	7336587.0
907.0	7517059.0
908.0	7381245.0
909.0	7601811.0
910.0	7316626.0
911.0	7520288.0
912.0	7300427.0
913.0	7295593.0
914.0	7138992.0
915.0	6845548.0
916.0	7075050.0
917.0	6780306.0
918.0	6981855.0
919.0	6669649.0
920.0	6840035.0
921.0	6845543.0
922.0	6839530.0
923.0	7205567.0
924.0	7329506.0
925.0	7705875.0
926.0	7589470.0
927.0	7684285.0
928.0	7482013.0
929.0	7616406.0
930.0	7594577.0
931.0	7524134.0
932.0	7665223.0
933.0	7381458.0
934.0	7473400.0
935.0	6945242.0
936.0	7037037.0
937.0	6849203.0
938.0	6985344.0
939.0	6951619.0
940.0	6829239.0
941.0	7153796.0
942.0	6994771.0
943.0	7323749.0
944.0	7230989.0
945.0	7565777.0
946.0	7530278.0
947.0	7757313.0
948.0	7835564.0
949.0	7545310.0
950.0	7966603.0
951.0	7688184.0
952.0	7774135.0
953.0	7359154.0
954.0	7394446.0
955.0	7227735.0
956.0	7011423.0
957.0	7053801.0
958.0	6559469.0
959.0	6956978.0
960.0	6781630.0
961.0	7345952.0
962.0	7383946.0
963.0	7394343.0
964.0	7507547.0
965.0	7395396.0
966.0	7762290.0
967.0	7504995.0
968.0	7987757.0
969.0	7768771.0
970.0	7882161.0
971.0	7715598.0
972.0	7556693.0
973.0	7598210.0
974.0	7126257.0
975.0	7275850.0
976.0	7119059.0
977.0	7106541.0
978.0	6655709.0
979.0	6766880.0
980.0	6939089.0
981.0	6891668.0
982.0	7208624.0
983.0	7009508.0
984.0	7314608.0
985.0	7299817.0
986.0	7667653.0
987.0	7604292.0
988.0	7851820.0
989.0	7953006.0
990.0	7703045.0
991.0	7874356.0
992.0	7499858.0
993.0	7629567.0
994.0	7320523.0
995.0	7365014.0
996.0	7143330.0
997.0	6975525.0
998.0	7071256.0
999.0	6764679.0
1000.0	7006853.0
1001.0	6835289.0
1002.0	7073530.0
1003.0	7107086.0
1004.0	7393176.0
1005.0	7400753.0
1006.0	7408713.0
1007.0	7649013.0
1008.0	7534007.0
1009.0	7941698.0
1010.0	7754108.0
1011.0	7814791.0
1012.0	7594290.0
1013.0	7587363.0
1014.0	7701591.0
1015.0	7255471.0
1016.0	7373463.0
1017.0	6854349.0
1018.0	7068495.0
1019.0	6733738.0
1020.0	6860023.0
1021.0	6900897.0
1022.0	7053597.0
1023.0	7238058.0
1024.0	7115851.0
1025.0	7536524.0
1026.0	7340449.0
1027.0	7710419.0
1028.0	7594503.0
1029.0	7696216.0
1030.0	7720079.0
1031.0	7538749.0
1032.0	7747781.0
1033.0	7461672.0
1034.0	7467060.0
1035.0	7000041.0
1036.0	7126982.0
1037.0	6931129.0
1038.0	6889441.0
1039.0	6986299.0
1040.0	6836099.0
1041.0	7091214.0
1042.0	6982754.0
1043.0	7451040.0
1044.0	7322351.0
1045.0	7475858.0
1046.0	7532881.0
1047.0	7666279.0
1048.0	7858814.0
1049.0	7699311.0
1050.0	7934861.0
1051.0	7457603.0
1052.0	7703813.0
1053.0	7351951.0
1054.0	7386916.0
1055.0	7206837.0
1056.0	6921349.0
1057.0	7140491.0
1058.0	6809449.0
1059.0	7081889.0
1060.0	6929881.0
1061.0	7046203.0
1062.0	6952602.0
1063.0	7133338.0
1064.0	7381638.0
1065.0	7250783.0
1066.0	7704485.0
1067.0	7565174.0
1068.0	7816035.0
1069.0	7560774.0
1070.0	7744010.0
1071.0	7649112.0
1072.0	7521899.0
1073.0	7664801.0
1074.0	7280497.0
1075.0	7263217.0
1076.0	6819682.0
1077.0	6957048.0
1078.0	6755484.0
1079.0	6913180.0
1080.0	6848126.0
1081.0	6855663.0
1082.0	7138507.0
1083.0	6993887.0
1084.0	7483749.0
1085.0	7295086.0
1086.0	7616514.0
1087.0	7517769.0
1088.0	7709209.0
1089.0	7797630.0
1090.0	7644289.0
1091.0	7817111.0
1092.0	7439441.0
1093.0	7664266.0
1094.0	7169101.0
1095.0	7193836.0
1096.0	7046432.0
1097.0	6923668.0
1098.0	6963933.0
1099.0	6702246.0
1100.0	7112878.0
1101.0	6867041.0
1102.0	7134893.0
1103.0	7079638.0
1104.0	7391906.0
1105.0	7508869.0
1106.0	7427695.0
1107.0	7818792.0
1108.0	7588435.0
1109.0	7882910.0
1110.0	7644228.0
1111.0	7818302.0
1112.0	7699620.0
1113.0	7551870.0
1114.0	7466725.0
1115.0	6958601.0
1116.0	7084865.0
1117.0	6791815.0
1118.0	7283495.0
1119.0	7084107.0
1120.0	7035044.0
1121.0	7086527.0
1122.0	7115345.0
1123.0	7272826.0
1124.0	7107134.0
1125.0	7674916.0
1126.0	7449071.0
1127.0	7803340.0
1128.0	7667257.0
1129.0	7798928.0
1130.0	7963446.0
1131.0	7736221.0
1132.0	7908867.0
1133.0	7600720.0
1134.0	7787755.0
1135.0	7318568.0
1136.0	7327735.0
1137.0	7301462.0
1138.0	7249463.0
1139.0	7372194.0
1140.0	7092375.0
1141.0	7346935.0
1142.0	7093071.0
1143.0	7423541.0
1144.0	7355339.0
1145.0	7768359.0
1146.0	7839460.0
1147.0	7903670.0
1148.0	8047882.0
1149.0	7835637.0
1150.0	8236562.0
1151.0	7785216.0
1152.0	7943700.0
1153.0	7796363.0
1154.0	7642927.0
1155.0	7422730.0
1156.0	7207936.0
1157.0	7241230.0
1158.0	6880065.0
1159.0	6977130.0
1160.0	6801642.0
1161.0	7065057.0
1162.0	7133807.0
1163.0	7282387.0
1164.0	7479193.0
1165.0	7440904.0
1166.0	7828472.0
1167.0	7633706.0
1168.0	7960848.0
1169.0	7775084.0
1170.0	7815926.0
1171.0	7688847.0
1172.0	7579710.0
1173.0	7734478.0
1174.0	7298360.0
1175.0	7443622.0
1176.0	6966661.0
1177.0	7074048.0
1178.0	6848286.0
1179.0	6896719.0
1180.0	6860816.0
1181.0	6781449.0
1182.0	7127509.0
1183.0	6885122.0
1184.0	7341177.0
1185.0	7305843.0
1186.0	7662509.0
1187.0	7636277.0
1188.0	7757545.0
1189.0	7876262.0
1190.0	7617093.0
1191.0	7855274.0
1192.0	7386239.0
1193.0	7672238.0
1194.0	7424081.0
1195.0	7377529.0
1196.0	7092126.0
1197.0	6916063.0
1198.0	6989640.0
1199.0	6627918.0
1200.0	6937670.0
1201.0	6682493.0
1202.0	6994403.0
1203.0	6992319.0
1204.0	7193153.0
1205.0	7425508.0
1206.0	7385911.0
1207.0	7629848.0
1208.0	7494456.0
1209.0	7758976.0
1210.0	7508894.0
1211.0	7737947.0
1212.0	7615564.0
1213.0	7480754.0
1214.0	7426622.0
1215.0	7079026.0
1216.0	7205253.0
1217.0	6792794.0
1218.0	7035902.0
1219.0	6779802.0
1220.0	6833537.0
1221.0	6848243.0
1222.0	6864581.0
1223.0	7110176.0
1224.0	7035224.0
1225.0	7467408.0
1226.0	7340852.0
1227.0	7716037.0
1228.0	7571637.0
1229.0	7701233.0
1230.0	7723282.0
1231.0	7513209.0
1232.0	7669095.0
1233.0	7284028.0
1234.0	7445939.0
1235.0	7096421.0
1236.0	7163609.0
1237.0	6740604.0
1238.0	6805078.0
1239.0	6994998.0
1240.0	6708113.0
1241.0	6988119.0
1242.0	6735560.0
1243.0	7178742.0
1244.0	7103457.0
1245.0	7461064.0
1246.0	7455361.0
1247.0	7477339.0
1248.0	7718655.0
1249.0	7473551.0
1250.0	7680051.0
1251.0	7433716.0
1252.0	7594400.0
1253.0	7373958.0
1254.0	7391134.0
1255.0	7370726.0
1256.0	6976401.0
1257.0	7015833.0
1258.0	6733497.0
1259.0	6895479.0
1260.0	6621702.0
1261.0	6780730.0
1262.0	6681387.0
1263.0	6800765.0
1264.0	6824988.0
1265.0	6616788.0
1266.0	6852781.0
1267.0	6558416.0
1268.0	6753162.0
1269.0	6553739.0
1270.0	6759269.0
1271.0	6636145.0
1272.0	6453269.0
1273.0	6471671.0
1274.0	6024622.0
1275.0	6253239.0
1276.0	5864804.0
1277.0	6038548.0
1278.0	5776111.0
1279.0	5801642.0
1280.0	5832253.0
1281.0	5930828.0
1282.0	6302014.0
1283.0	6382889.0
1284.0	6683670.0
1285.0	6144488.0
1286.0	6481143.0
1287.0	6404589.0
1288.0	6473086.0
1289.0	6539526.0
1290.0	6795075.0
1291.0	7386096.0
1292.0	7475344.0
1293.0	8015996.0
1294.0	7878369.0
1295.0	8163932.0
1296.0	8067922.0
1297.0	8111013.0
1298.0	8294450.0
1299.0	8328019.0
1300.0	8700189.0
1301.0	8534421.0
1302.0	8925072.0
1303.0	8664224.0
1304.0	8867064.0
1305.0	8791324.0
1306.0	8851462.0
1307.0	9013146.0
1308.0	8824713.0
1309.0	9147381.0
1310.0	8791791.0
1311.0	8989910.0
1312.0	8613207.0
1313.0	8570686.0
1314.0	8226810.0
1315.0	7778617.0
1316.0	7816888.0
1317.0	7259434.0
1318.0	7430674.0
1319.0	7025721.0
1320.0	7201007.0
1321.0	6888315.0
1322.0	6934644.0
1323.0	7224420.0
1324.0	7342707.0
1325.0	7773490.0
1326.0	7482372.0
1327.0	7824733.0
1328.0	7600539.0
1329.0	7907228.0
1330.0	7849257.0
1331.0	7796966.0
1332.0	7778476.0
1333.0	7559328.0
1334.0	7657583.0
1335.0	7186539.0
1336.0	7311845.0
1337.0	6950568.0
1338.0	6943453.0
1339.0	6833950.0
1340.0	6717390.0
1341.0	6983779.0
1342.0	6851376.0
1343.0	7169745.0
1344.0	7123887.0
1345.0	7497449.0
1346.0	7448069.0
1347.0	7518467.0
1348.0	7593583.0
1349.0	7679566.0
1350.0	7939984.0
1351.0	7580793.0
1352.0	7815554.0
1353.0	7271938.0
1354.0	7321349.0
1355.0	7024654.0
1356.0	6953929.0
1357.0	6964872.0
1358.0	6765854.0
1359.0	6916512.0
1360.0	6568223.0
1361.0	6883162.0
1362.0	6743966.0
1363.0	7103059.0
1364.0	7243885.0
1365.0	7128732.0
1366.0	7407050.0
1367.0	7336827.0
1368.0	7739514.0
1369.0	7509276.0
1370.0	7664312.0
1371.0	7492234.0
1372.0	7537163.0
1373.0	7551560.0
1374.0	7244661.0
1375.0	7345660.0
1376.0	6871941.0
1377.0	6985559.0
1378.0	6726349.0
1379.0	6751135.0
1380.0	6625523.0
1381.0	6702621.0
1382.0	6952881.0
1383.0	6920963.0
1384.0	7200254.0
1385.0	6938148.0
1386.0	7450642.0
1387.0	7419311.0
1388.0	7693778.0
1389.0	7733375.0
1390.0	7631462.0
1391.0	7690730.0
1392.0	7372586.0
1393.0	7520402.0
1394.0	7037311.0
1395.0	7159511.0
1396.0	6830446.0
1397.0	6774750.0
1398.0	6784362.0
1399.0	6587806.0
1400.0	6944052.0
1401.0	6615835.0
1402.0	6950346.0
1403.0	6759108.0
1404.0	7041283.0
1405.0	7151061.0
1406.0	7164562.0
1407.0	7451211.0
1408.0	7335417.0
1409.0	7541491.0
1410.0	7252262.0
1411.0	7554948.0
1412.0	7435581.0
1413.0	7394504.0
1414.0	7204006.0
1415.0	6930636.0
1416.0	7109584.0
1417.0	6728423.0
1418.0	6827390.0
1419.0	6430765.0
1420.0	6632825.0
1421.0	6627472.0
1422.0	6793721.0
1423.0	6780978.0
1424.0	6726510.0
1425.0	7043670.0
1426.0	6847045.0
1427.0	7355430.0
1428.0	7179799.0
1429.0	7518238.0
1430.0	7332011.0
1431.0	7188213.0
1432.0	7280414.0
1433.0	6968732.0
1434.0	7196603.0
1435.0	6882222.0
1436.0	6996813.0
1437.0	6592450.0
1438.0	6546770.0
1439.0	6484978.0
1440.0	6315206.0
1441.0	6623860.0
1442.0	6339870.0
1443.0	6788116.0
1444.0	6590400.0
1445.0	6946276.0
1446.0	6991633.0
1447.0	7143751.0
1448.0	7377944.0
1449.0	7239736.0
1450.0	7394124.0
1451.0	7175983.0
1452.0	7368279.0
1453.0	7130000.0
1454.0	7167278.0
1455.0	6906751.0
1456.0	6705313.0
1457.0	6772297.0
1458.0	6315852.0
1459.0	6606517.0
1460.0	6358225.0
1461.0	6625010.0
1462.0	6598362.0
1463.0	6619207.0
1464.0	6760261.0
1465.0	6779916.0
1466.0	7129533.0
1467.0	6780416.0
1468.0	7285170.0
1469.0	7263570.0
1470.0	7632024.0
1471.0	7577605.0
1472.0	7454775.0
1473.0	7439815.0
1474.0	7063008.0
1475.0	7116807.0
1476.0	6660363.0
1477.0	6924866.0
1478.0	6532336.0
1479.0	6633399.0
1480.0	6528603.0
1481.0	6388661.0
1482.0	6585846.0
1483.0	6503493.0
1484.0	6887453.0
1485.0	6714720.0
1486.0	7173351.0
1487.0	7307517.0
1488.0	7482280.0
1489.0	7616600.0
1490.0	7472843.0
1491.0	7754942.0
1492.0	7408105.0
1493.0	7664191.0
1494.0	7298528.0
1495.0	7263877.0
1496.0	7128481.0
1497.0	6912620.0
1498.0	6985606.0
1499.0	6664325.0
1500.0	6894176.0
1501.0	6583702.0
1502.0	6899662.0
1503.0	6946459.0
1504.0	7132470.0
1505.0	7312787.0
1506.0	7294082.0
1507.0	7780773.0
1508.0	7580650.0
1509.0	7925832.0
1510.0	7654752.0
1511.0	7971854.0
1512.0	7758834.0
1513.0	7474941.0
1514.0	7546581.0
1515.0	7148498.0
1516.0	7375658.0
1517.0	7008343.0
1518.0	7060588.0
1519.0	6798562.0
1520.0	6924986.0
1521.0	7066334.0
1522.0	6855137.0
1523.0	7140082.0
1524.0	6987571.0
1525.0	7551399.0
1526.0	7408600.0
1527.0	7681503.0
1528.0	7586727.0
1529.0	7576918.0
1530.0	7851322.0
1531.0	7648720.0
1532.0	7790437.0
1533.0	7502861.0
1534.0	7670762.0
1535.0	7385582.0
1536.0	7375362.0
1537.0	7147477.0
1538.0	6899370.0
1539.0	6978350.0
1540.0	6754239.0
1541.0	7047734.0
1542.0	6881460.0
1543.0	7275646.0
1544.0	7183017.0
1545.0	7393462.0
1546.0	7509938.0
1547.0	7488862.0
1548.0	7814033.0
1549.0	7623214.0
1550.0	8027634.0
1551.0	7678593.0
1552.0	7773709.0
1553.0	7531262.0
1554.0	7388895.0
1555.0	7368698.0
1556.0	7071471.0
1557.0	7286974.0
1558.0	6919261.0
1559.0	7073084.0
1560.0	6769195.0
1561.0	6846773.0
1562.0	6861206.0
1563.0	7018106.0
1564.0	7276139.0
1565.0	7129069.0
1566.0	7512901.0
1567.0	7401752.0
1568.0	7850123.0
1569.0	7799562.0
1570.0	7971592.0
1571.0	7865491.0
1572.0	7653019.0
1573.0	7652803.0
1574.0	7291578.0
1575.0	7452784.0
1576.0	7079091.0
1577.0	7233340.0
1578.0	7097400.0
1579.0	7048225.0
1580.0	7161325.0
1581.0	6865087.0
1582.0	7188297.0
1583.0	6869064.0
1584.0	7211569.0
1585.0	7100381.0
1586.0	7406779.0
1587.0	7476220.0
1588.0	7606377.0
1589.0	7748664.0
1590.0	7513263.0
1591.0	7799963.0
1592.0	7615040.0
1593.0	7763703.0
1594.0	7622830.0
1595.0	7500861.0
1596.0	7159855.0
1597.0	6909654.0
1598.0	7095946.0
1599.0	6865256.0
1600.0	7154991.0
1601.0	6882670.0
1602.0	7071043.0
1603.0	6928394.0
1604.0	7189175.0
1605.0	7350127.0
1606.0	7314212.0
1607.0	7663804.0
1608.0	7464178.0
1609.0	7883202.0
1610.0	7626860.0
1611.0	7969183.0
1612.0	7625701.0
1613.0	7750125.0
1614.0	7727242.0
1615.0	7313196.0
1616.0	7559377.0
1617.0	7247578.0
1618.0	7274175.0
1619.0	6878079.0
1620.0	7005343.0
1621.0	6936539.0
1622.0	7059692.0
1623.0	7283026.0
1624.0	7094825.0
1625.0	7493466.0
1626.0	7238664.0
1627.0	7668958.0
1628.0	7716800.0
1629.0	7999278.0
1630.0	7850427.0
1631.0	7840408.0
1632.0	7926087.0
1633.0	7594492.0
1634.0	7731487.0
1635.0	7225383.0
1636.0	7485188.0
1637.0	7184813.0
1638.0	7167646.0
1639.0	7082863.0
1640.0	6964487.0
1641.0	7062115.0
1642.0	6880130.0
1643.0	7255454.0
1644.0	7032807.0
1645.0	7463939.0
1646.0	7438282.0
1647.0	7577375.0
1648.0	7952319.0
1649.0	7887804.0
1650.0	8014425.0
1651.0	7642942.0
1652.0	7888540.0
1653.0	7703709.0
1654.0	7693232.0
1655.0	7534111.0
1656.0	7326275.0
1657.0	7385001.0
1658.0	7007921.0
1659.0	7196356.0
1660.0	6849972.0
1661.0	7004579.0
1662.0	6863983.0
1663.0	7100208.0
1664.0	7257644.0
1665.0	7252432.0
1666.0	7552845.0
1667.0	7368007.0
1668.0	7759271.0
1669.0	7698928.0
1670.0	8042501.0
1671.0	7799424.0
1672.0	7755225.0
1673.0	7798474.0
1674.0	7530093.0
1675.0	7591234.0
1676.0	7160619.0
1677.0	7360219.0
1678.0	7025472.0
1679.0	7097790.0
1680.0	7059297.0
1681.0	6819430.0
1682.0	7070728.0
1683.0	6984322.0
1684.0	7446436.0
1685.0	7242823.0
1686.0	7618296.0
1687.0	7726634.0
1688.0	7880270.0
1689.0	7918861.0
1690.0	7727975.0
1691.0	8114167.0
1692.0	7709090.0
1693.0	7819829.0
1694.0	7474110.0
1695.0	7524187.0
1696.0	7449976.0
1697.0	7269152.0
1698.0	7223439.0
1699.0	6896389.0
1700.0	7228391.0
1701.0	6971651.0
1702.0	7235264.0
1703.0	7139918.0
1704.0	7339045.0
1705.0	7458270.0
1706.0	7530591.0
1707.0	7774082.0
1708.0	7667283.0
1709.0	8003778.0
1710.0	7732477.0
1711.0	7896359.0
1712.0	7721014.0
1713.0	7715502.0
1714.0	7798583.0
1715.0	7449257.0
1716.0	7697247.0
1717.0	7352681.0
1718.0	7490881.0
1719.0	7136098.0
1720.0	7208523.0
1721.0	7145011.0
1722.0	7058979.0
1723.0	7174250.0
1724.0	7258642.0
1725.0	7630462.0
1726.0	7531813.0
1727.0	7966464.0
1728.0	7855023.0
1729.0	8023062.0
1730.0	8137982.0
1731.0	8020818.0
1732.0	8175906.0
1733.0	7817132.0
1734.0	8044926.0
1735.0	7508091.0
1736.0	7472606.0
1737.0	7226873.0
1738.0	7136097.0
1739.0	7224266.0
1740.0	7042711.0
1741.0	7154683.0
1742.0	6868271.0
1743.0	7215620.0
1744.0	7048179.0
1745.0	7458016.0
1746.0	7637051.0
1747.0	7732202.0
1748.0	7852205.0
1749.0	7573080.0
1750.0	7831989.0
1751.0	7642250.0
1752.0	7842644.0
1753.0	7723597.0
1754.0	7530468.0
1755.0	7519615.0
1756.0	7217325.0
1757.0	7398014.0
1758.0	6914395.0
1759.0	7042229.0
1760.0	6893754.0
1761.0	7166995.0
1762.0	7108090.0
1763.0	7173318.0
1764.0	7348610.0
1765.0	7280110.0
1766.0	7704079.0
1767.0	7513804.0
1768.0	7843657.0
1769.0	7656893.0
1770.0	7869395.0
1771.0	7947848.0
1772.0	7763843.0
1773.0	7811099.0
1774.0	7279985.0
1775.0	7427061.0
1776.0	7076137.0
1777.0	7330317.0
1778.0	7107178.0
1779.0	6980887.0
1780.0	6986904.0
1781.0	6783359.0
1782.0	7249240.0
1783.0	6972795.0
1784.0	7187226.0
1785.0	7092399.0
1786.0	7479168.0
1787.0	7634983.0
1788.0	7727753.0
1789.0	7892849.0
1790.0	7646673.0
1791.0	7942707.0
1792.0	7587725.0
1793.0	7748697.0
1794.0	7547208.0
1795.0	7403852.0
1796.0	7292442.0
1797.0	7084897.0
1798.0	7175904.0
1799.0	6763521.0
1800.0	6913096.0
1801.0	6674917.0
1802.0	6936668.0
1803.0	6936472.0
1804.0	7013691.0
1805.0	7133470.0
1806.0	7070978.0
1807.0	7572525.0
1808.0	7373756.0
1809.0	7828738.0
1810.0	7724730.0
1811.0	7816996.0
1812.0	7761473.0
1813.0	7560183.0
1814.0	7659614.0
1815.0	7256802.0
1816.0	7475449.0
1817.0	7063399.0
1818.0	7030343.0
1819.0	6896684.0
1820.0	6881352.0
1821.0	6787560.0
1822.0	6639060.0
1823.0	7122058.0
1824.0	6981879.0
1825.0	7459379.0
1826.0	7315932.0
1827.0	7482560.0
1828.0	7578551.0
1829.0	7546788.0
1830.0	7708926.0
1831.0	7554744.0
1832.0	7811935.0
1833.0	7458199.0
1834.0	7663576.0
1835.0	7390395.0
1836.0	7261305.0
1837.0	7070312.0
1838.0	6813364.0
1839.0	6982719.0
1840.0	6629652.0
1841.0	6876743.0
1842.0	6511695.0
1843.0	6531340.0
1844.0	6484296.0
1845.0	6353762.0
1846.0	6493136.0
1847.0	6300442.0
1848.0	6634364.0
1849.0	6352353.0
1850.0	6501069.0
1851.0	6332100.0
1852.0	6563891.0
1853.0	6565615.0
1854.0	6278908.0
1855.0	6365259.0
1856.0	6040839.0
1857.0	6146541.0
1858.0	5679828.0
1859.0	5781202.0
1860.0	5771113.0
1861.0	5978493.0
1862.0	6209504.0
1863.0	6087291.0
1864.0	6245337.0
1865.0	5895070.0
1866.0	6343817.0
1867.0	6264627.0
1868.0	6824886.0
1869.0	7006512.0
1870.0	7232303.0
1871.0	7731527.0
1872.0	7940379.0
1873.0	8418875.0
1874.0	8322694.0
1875.0	8538136.0
1876.0	8525761.0
1877.0	8697930.0
1878.0	8824789.0
1879.0	8657608.0
1880.0	8965667.0
1881.0	8535162.0
1882.0	8673142.0
1883.0	8504162.0
1884.0	8769568.0
1885.0	8766201.0
1886.0	8906192.0
1887.0	9149465.0
1888.0	8945986.0
1889.0	9156447.0
1890.0	8927465.0
1891.0	9041971.0
1892.0	8626822.0
1893.0	8501771.0
1894.0	8332410.0
1895.0	8013207.0
1896.0	7985542.0
1897.0	7535711.0
1898.0	7705409.0
1899.0	7182590.0
1900.0	7188847.0
1901.0	7049718.0
1902.0	7092459.0
1903.0	7277029.0
1904.0	7151486.0
1905.0	7481691.0
1906.0	7257634.0
1907.0	7780676.0
1908.0	7739165.0
1909.0	7991677.0
1910.0	7842401.0
1911.0	7750686.0
1912.0	7858843.0
1913.0	7422679.0
1914.0	7579471.0
1915.0	7332934.0
1916.0	7389480.0
1917.0	7013170.0
1918.0	6945766.0
1919.0	6950598.0
1920.0	6857031.0
1921.0	7244515.0
1922.0	6938468.0
1923.0	7198699.0
1924.0	6966063.0
1925.0	7278702.0
1926.0	7348139.0
1927.0	7487714.0
1928.0	7768084.0
1929.0	7813619.0
1930.0	7906797.0
1931.0	7512427.0
1932.0	7826960.0
1933.0	7636620.0
1934.0	7654630.0
1935.0	7485457.0
1936.0	7079697.0
1937.0	7076690.0
1938.0	6781590.0
1939.0	7003256.0
1940.0	6753623.0
1941.0	6825068.0
1942.0	6825539.0
1943.0	7000306.0
1944.0	7041300.0
1945.0	7047256.0
1946.0	7430537.0
1947.0	7291052.0
1948.0	7620283.0
1949.0	7513885.0
1950.0	7716411.0
1951.0	7661484.0
1952.0	7627315.0
1953.0	7702424.0
1954.0	7366322.0
1955.0	7567858.0
1956.0	7128298.0
1957.0	7245478.0
1958.0	6968111.0
1959.0	6906133.0
1960.0	6960144.0
1961.0	6762490.0
1962.0	6964651.0
1963.0	6755138.0
1964.0	7209640.0
1965.0	7007847.0
1966.0	7279165.0
1967.0	7340054.0
1968.0	7513640.0
1969.0	7705864.0
1970.0	7483391.0
1971.0	7743416.0
1972.0	7452122.0
1973.0	7715493.0
1974.0	7517422.0
1975.0	7431551.0
1976.0	7254394.0
1977.0	6913950.0
1978.0	7211327.0
1979.0	6611666.0
1980.0	6947978.0
1981.0	6617149.0
1982.0	6833627.0
1983.0	6880089.0
1984.0	6919135.0
1985.0	7012610.0
1986.0	6972357.0
1987.0	7484500.0
1988.0	7352123.0
1989.0	7749273.0
1990.0	7620506.0
1991.0	7676033.0
1992.0	7597558.0
1993.0	7420628.0
1994.0	7534824.0
1995.0	7100032.0
1996.0	7187855.0
1997.0	6951968.0
1998.0	7160700.0
1999.0	6814083.0
2000.0	6815872.0
2001.0	6987372.0
2002.0	6699702.0
2003.0	6879244.0
2004.0	6657820.0
2005.0	7093702.0
2006.0	6879841.0
2007.0	7232851.0
2008.0	7303369.0
2009.0	7362556.0
2010.0	7567710.0
2011.0	7346990.0
2012.0	7580941.0
2013.0	7287203.0
2014.0	7570697.0
2015.0	7220735.0
2016.0	7152811.0
2017.0	6972386.0
2018.0	6735620.0
2019.0	6873321.0
2020.0	6441166.0
2021.0	6489585.0
2022.0	6248168.0
2023.0	6722598.0
2024.0	6821843.0
2025.0	7082852.0
2026.0	7203746.0
2027.0	7108367.0
2028.0	7501577.0
2029.0	7342387.0
2030.0	7616221.0
2031.0	7438225.0
2032.0	7571752.0
2033.0	7466148.0
2034.0	7258340.0
2035.0	7335243.0
2036.0	7000937.0
2037.0	7108418.0
2038.0	6747114.0
2039.0	6932876.0
2040.0	6723705.0
2041.0	6537923.0
2042.0	6462195.0
2043.0	6647011.0
2044.0	7044776.0
2045.0	6870550.0
2046.0	7367343.0
2047.0	7168429.0
2048.0	7404508.0
2049.0	7369619.0
2050.0	7485707.0
2051.0	7581709.0
2052.0	7392239.0
2053.0	7713420.0
2054.0	7417291.0
2055.0	7619376.0
2056.0	7099246.0
2057.0	7067514.0
2058.0	6908841.0
2059.0	6745949.0
2060.0	6914041.0
2061.0	6703802.0
2062.0	7005806.0
2063.0	6676007.0
2064.0	7079945.0
2065.0	6972981.0
2066.0	7237294.0
2067.0	7328896.0
2068.0	7373418.0
2069.0	7720794.0
2070.0	7512072.0
2071.0	7804243.0
2072.0	7461491.0
2073.0	7702603.0
2074.0	7650538.0
2075.0	7566917.0
2076.0	7541920.0
2077.0	7131436.0
2078.0	7309454.0
2079.0	6860559.0
2080.0	7128122.0
2081.0	6881598.0
2082.0	7083439.0
2083.0	7192334.0
2084.0	7024640.0
2085.0	7246316.0
2086.0	7180235.0
2087.0	7613699.0
2088.0	7569422.0
2089.0	8042444.0
2090.0	7676637.0
2091.0	7835473.0
2092.0	8029484.0
2093.0	7872943.0
2094.0	8039703.0
2095.0	7547788.0
2096.0	7684242.0
2097.0	7308273.0
2098.0	7361925.0
2099.0	7192455.0
2100.0	7149982.0
2101.0	7242543.0
2102.0	6985544.0
2103.0	7415459.0
2104.0	7145720.0
2105.0	7393021.0
2106.0	7378581.0
2107.0	7678987.0
2108.0	7689762.0
2109.0	7800658.0
2110.0	8023941.0
2111.0	7831970.0
2112.0	8179877.0
2113.0	7809263.0
2114.0	7952333.0
2115.0	7688339.0
2116.0	7664290.0
2117.0	7491179.0
2118.0	7274706.0
2119.0	7366196.0
2120.0	6906405.0
2121.0	7197825.0
2122.0	6956579.0
2123.0	7186971.0
2124.0	7178624.0
2125.0	7334507.0
2126.0	7505963.0
2127.0	7469638.0
2128.0	7846920.0
2129.0	7714171.0
2130.0	8127764.0
2131.0	7952232.0
2132.0	7928037.0
2133.0	7846654.0
2134.0	8079571.0
2135.0	7734789.0
2136.0	7205293.0
2137.0	7555088.0
2138.0	7349574.0
2139.0	7436751.0
2140.0	7143957.0
2141.0	7298098.0
2142.0	7189607.0
2143.0	7102427.0
2144.0	7385751.0
2145.0	7151434.0
2146.0	7696560.0
2147.0	7493101.0
2148.0	7796011.0
2149.0	7802461.0
2150.0	7989377.0
2151.0	8254883.0
2152.0	7973098.0
2153.0	8092539.0
2154.0	7682298.0
2155.0	7892752.0
2156.0	7483306.0
2157.0	7491733.0
2158.0	7297101.0
2159.0	7149740.0
2160.0	7186300.0
2161.0	7046233.0
2162.0	7269445.0
2163.0	6952728.0
2164.0	7212455.0
2165.0	7081703.0
2166.0	7415298.0
2167.0	7581555.0
2168.0	7818114.0
2169.0	8147666.0
2170.0	8010215.0
2171.0	8166684.0
2172.0	7853754.0
2173.0	8047011.0
2174.0	7832549.0
2175.0	7865741.0
2176.0	7738776.0
2177.0	7430081.0
2178.0	7425293.0
2179.0	7068804.0
2180.0	7348910.0
2181.0	7006736.0
2182.0	7255395.0
2183.0	7026836.0
2184.0	7245479.0
2185.0	7293118.0
2186.0	7369742.0
2187.0	7896057.0
2188.0	7713447.0
2189.0	8002947.0
2190.0	7800870.0
2191.0	8082493.0
2192.0	7933182.0
2193.0	7893017.0
2194.0	8013737.0
2195.0	7762973.0
2196.0	7836248.0
2197.0	7345367.0
2198.0	7648194.0
2199.0	7173531.0
2200.0	7310437.0
2201.0	7268097.0
2202.0	6990577.0
2203.0	7152197.0
2204.0	6965674.0
2205.0	7403285.0
2206.0	7392322.0
2207.0	7726199.0
2208.0	7599242.0
2209.0	7973806.0
2210.0	8114821.0
2211.0	7835158.0
2212.0	8166441.0
2213.0	7775970.0
2214.0	8001661.0
2215.0	7788805.0
2216.0	7869421.0
2217.0	7660750.0
2218.0	7395693.0
2219.0	7348599.0
2220.0	7086325.0
2221.0	7237243.0
2222.0	6947835.0
2223.0	7240055.0
2224.0	7015726.0
2225.0	7206136.0
2226.0	7379268.0
2227.0	7532639.0
2228.0	7909855.0
2229.0	7838921.0
2230.0	8239900.0
2231.0	7879861.0
2232.0	8059921.0
2233.0	7937444.0
2234.0	8123666.0
2235.0	7941491.0
2236.0	7555684.0
2237.0	7713540.0
2238.0	7450341.0
2239.0	7611651.0
2240.0	7189867.0
2241.0	7239724.0
2242.0	7022223.0
2243.0	7025503.0
2244.0	7122936.0
2245.0	7118880.0
2246.0	7513852.0
2247.0	7311570.0
2248.0	7860097.0
2249.0	7806555.0
2250.0	7995681.0
2251.0	8017494.0
2252.0	8063635.0
2253.0	8198163.0
2254.0	7947728.0
2255.0	8018020.0
2256.0	7518956.0
2257.0	7665847.0
2258.0	7455881.0
2259.0	7445346.0
2260.0	7239673.0
2261.0	7065800.0
2262.0	7187540.0
2263.0	7017517.0
2264.0	7370164.0
2265.0	7156101.0
2266.0	7559063.0
2267.0	7541736.0
2268.0	7880513.0
2269.0	7999204.0
2270.0	7956250.0
2271.0	8268519.0
2272.0	8028992.0
2273.0	8245564.0
2274.0	7790807.0
2275.0	7870594.0
2276.0	7665624.0
2277.0	7743128.0
2278.0	7760860.0
2279.0	7432614.0
2280.0	7577202.0
2281.0	7156528.0
2282.0	7448426.0
2283.0	7186185.0
2284.0	7314652.0
2285.0	7459206.0
2286.0	7516047.0
2287.0	7844862.0
2288.0	7733321.0
2289.0	8091467.0
2290.0	7960772.0
2291.0	8395397.0
2292.0	8246122.0
2293.0	8300470.0
2294.0	8254389.0
2295.0	8073835.0
2296.0	8084178.0
2297.0	7546583.0
2298.0	7623534.0
2299.0	7172840.0
2300.0	7394687.0
2301.0	7254878.0
2302.0	7195698.0
2303.0	7299101.0
2304.0	7313151.0
2305.0	7667045.0
2306.0	7455693.0
2307.0	7868335.0
2308.0	7744564.0
2309.0	7858254.0
2310.0	7989726.0
2311.0	8005748.0
2312.0	8199826.0
2313.0	7959630.0
2314.0	8147153.0
2315.0	7809779.0
2316.0	7802558.0
2317.0	7636773.0
2318.0	7427071.0
2319.0	7372184.0
2320.0	7091210.0
2321.0	7255649.0
2322.0	6990589.0
2323.0	7373268.0
2324.0	7253230.0
2325.0	7544494.0
2326.0	7546422.0
2327.0	7560955.0
2328.0	7799524.0
2329.0	7688561.0
2330.0	8011160.0
2331.0	7690169.0
2332.0	8159960.0
2333.0	7953720.0
2334.0	7813217.0
2335.0	7692445.0
2336.0	7366526.0
2337.0	7477658.0
2338.0	7044975.0
2339.0	7211703.0
2340.0	6987569.0
2341.0	7170396.0
2342.0	6968249.0
2343.0	6905051.0
2344.0	7110385.0
2345.0	6974081.0
2346.0	7440388.0
2347.0	7290835.0
2348.0	7826420.0
2349.0	7732600.0
2350.0	7854317.0
2351.0	7954070.0
2352.0	7872339.0
2353.0	7968973.0
2354.0	7652232.0
2355.0	7878597.0
2356.0	7542497.0
2357.0	7517138.0
2358.0	7145532.0
2359.0	7132120.0
2360.0	7070485.0
2361.0	6852002.0
2362.0	7105179.0
2363.0	6851654.0
2364.0	7132212.0
2365.0	6986430.0
2366.0	7258876.0
2367.0	7415121.0
2368.0	7487875.0
2369.0	7796697.0
2370.0	7623693.0
2371.0	7998557.0
2372.0	7720508.0
2373.0	7946678.0
2374.0	7728543.0
2375.0	7752110.0
2376.0	7673374.0
2377.0	7384323.0
2378.0	7462777.0
2379.0	6985373.0
2380.0	7195665.0
2381.0	6817338.0
2382.0	7107186.0
2383.0	6900532.0
2384.0	6991104.0
2385.0	7208400.0
2386.0	7133737.0
2387.0	7461229.0
2388.0	7305340.0
2389.0	7786439.0
2390.0	7696064.0
2391.0	8034282.0
2392.0	8075309.0
2393.0	7938494.0
2394.0	7946201.0
2395.0	7454254.0
2396.0	7568321.0
2397.0	7137896.0
2398.0	7367774.0
2399.0	7124719.0
2400.0	7077408.0
2401.0	6892575.0
2402.0	6628448.0
2403.0	6899977.0
2404.0	6676759.0
2405.0	7106331.0
2406.0	6867237.0
2407.0	7012076.0
2408.0	6841661.0
2409.0	6849281.0
2410.0	6840047.0
2411.0	6700985.0
2412.0	6926824.0
2413.0	6631109.0
2414.0	6815958.0
2415.0	6623168.0
2416.0	6630425.0
2417.0	6594464.0
2418.0	6319466.0
2419.0	6536871.0
2420.0	6159651.0
2421.0	6215482.0
2422.0	5832368.0
2423.0	6128008.0
2424.0	6304220.0
2425.0	6497467.0
2426.0	6720644.0
2427.0	6508457.0
2428.0	6962679.0
2429.0	6691673.0
2430.0	7126992.0
2431.0	7001269.0
2432.0	7203825.0
2433.0	7606226.0
2434.0	7746658.0
2435.0	8242871.0
2436.0	7976372.0
2437.0	8333415.0
2438.0	8248376.0
2439.0	8748608.0
2440.0	8599469.0
2441.0	8561480.0
2442.0	8603857.0
2443.0	8461034.0
2444.0	8830170.0
2445.0	8489410.0
2446.0	8901608.0
2447.0	8864158.0
2448.0	9039484.0
2449.0	9148415.0
2450.0	9204288.0
2451.0	9317440.0
2452.0	9118125.0
2453.0	9352812.0
2454.0	8840506.0
2455.0	8872018.0
2456.0	8467173.0
2457.0	8139469.0
2458.0	8036491.0
2459.0	7661871.0
2460.0	7629139.0
2461.0	7180641.0
2462.0	7447033.0
2463.0	7071863.0
2464.0	7224861.0
2465.0	7203871.0
2466.0	7301242.0
2467.0	7634202.0
2468.0	7453508.0
2469.0	7788463.0
2470.0	7670460.0
2471.0	7962385.0
2472.0	7717752.0
2473.0	7924197.0
2474.0	7963721.0
2475.0	7684972.0
2476.0	7725115.0
2477.0	7344934.0
2478.0	7413201.0
2479.0	7072053.0
2480.0	7220108.0
2481.0	7026781.0
2482.0	7029887.0
2483.0	7093598.0
2484.0	6822936.0
2485.0	7090202.0
2486.0	7003137.0
2487.0	7548367.0
2488.0	7462385.0
2489.0	7767296.0
2490.0	7773157.0
2491.0	7605543.0
2492.0	7802042.0
2493.0	7516907.0
2494.0	7737279.0
2495.0	7404776.0
2496.0	7576769.0
2497.0	7099668.0
2498.0	7108613.0
2499.0	7072904.0
2500.0	6888614.0
2501.0	7152580.0
2502.0	6964463.0
2503.0	7314341.0
2504.0	6951127.0
2505.0	6990505.0
2506.0	7001856.0
2507.0	7138961.0
2508.0	7510980.0
2509.0	7412462.0
2510.0	7888702.0
2511.0	7673113.0
2512.0	7892397.0
2513.0	7666812.0
2514.0	7767819.0
2515.0	7732996.0
2516.0	7426970.0
2517.0	7353362.0
2518.0	6859113.0
2519.0	7177284.0
2520.0	6826533.0
2521.0	7028945.0
2522.0	6901491.0
2523.0	6888376.0
2524.0	7004332.0
2525.0	6916795.0
2526.0	7163078.0
2527.0	7009226.0
2528.0	7394760.0
2529.0	7270359.0
2530.0	7667955.0
2531.0	7733256.0
2532.0	7759031.0
2533.0	7918664.0
2534.0	7534528.0
2535.0	7661212.0
2536.0	7204808.0
2537.0	7313772.0
2538.0	7064138.0
2539.0	7142505.0
2540.0	7016227.0
2541.0	6861047.0
2542.0	7030080.0
2543.0	6768282.0
2544.0	7070703.0
2545.0	6844429.0
2546.0	7172035.0
2547.0	7246508.0
2548.0	7356415.0
2549.0	7587541.0
2550.0	7536429.0
2551.0	7836703.0
2552.0	7606243.0
2553.0	7866608.0
2554.0	7497945.0
2555.0	7624753.0
2556.0	7507066.0
2557.0	7362562.0
2558.0	7317332.0
2559.0	6886592.0
2560.0	6996582.0
2561.0	6785478.0
2562.0	6879368.0
2563.0	6593878.0
2564.0	6699469.0
2565.0	6791120.0
2566.0	6788980.0
2567.0	7289825.0
2568.0	7191975.0
2569.0	7606442.0
2570.0	7490089.0
2571.0	7792915.0
2572.0	7644789.0
2573.0	7580878.0
2574.0	7630928.0
2575.0	7363260.0
2576.0	7481956.0
2577.0	6989706.0
2578.0	7091681.0
2579.0	6777553.0
2580.0	6739018.0
2581.0	6754258.0
2582.0	6578441.0
2583.0	6677730.0
2584.0	6465941.0
2585.0	6923552.0
2586.0	6773222.0
2587.0	7148288.0
2588.0	7212357.0
2589.0	7302365.0
2590.0	7527650.0
2591.0	7332953.0
2592.0	7626685.0
2593.0	7341752.0
2594.0	7674287.0
2595.0	7491392.0
2596.0	7365490.0
2597.0	7140359.0
2598.0	7076425.0
2599.0	7312372.0
2600.0	6780184.0
2601.0	6871167.0
2602.0	6475495.0
2603.0	6742948.0
2604.0	6681869.0
2605.0	6760321.0
2606.0	6962823.0
2607.0	6956560.0
2608.0	7292854.0
2609.0	7178651.0
2610.0	7485034.0
2611.0	7501339.0
2612.0	7758054.0
2613.0	7641039.0
2614.0	7584788.0
2615.0	7682843.0
2616.0	7352023.0
2617.0	7346580.0
2618.0	6952951.0
2619.0	7092392.0
2620.0	6847527.0
2621.0	6873123.0
2622.0	6816372.0
2623.0	6563934.0
2624.0	6840758.0
2625.0	6673987.0
2626.0	7139796.0
2627.0	7085478.0
2628.0	7549177.0
2629.0	7655429.0
2630.0	7698604.0
2631.0	7707931.0
2632.0	7646565.0
2633.0	8057397.0
2634.0	7744825.0
2635.0	8042776.0
2636.0	7633428.0
2637.0	7576069.0
2638.0	7286671.0
2639.0	7176460.0
2640.0	7224372.0
2641.0	6923310.0
2642.0	7233102.0
2643.0	6958511.0
2644.0	7212981.0
2645.0	7126021.0
2646.0	7396768.0
2647.0	7488372.0
2648.0	7391638.0
2649.0	7797720.0
2650.0	7660688.0
2651.0	8137157.0
2652.0	7917119.0
2653.0	8059642.0
2654.0	7944675.0
2655.0	7981355.0
2656.0	7950563.0
2657.0	7569851.0
2658.0	7677978.0
2659.0	7262291.0
2660.0	7411414.0
2661.0	7159114.0
2662.0	7182053.0
2663.0	7235397.0
2664.0	7066692.0
2665.0	7352189.0
2666.0	7217668.0
2667.0	7569126.0
2668.0	7440713.0
2669.0	7821324.0
2670.0	7828856.0
2671.0	7847861.0
2672.0	8072282.0
2673.0	7918123.0
2674.0	8139446.0
2675.0	7714378.0
2676.0	7914811.0
2677.0	7564077.0
2678.0	7522971.0
2679.0	7475397.0
2680.0	7317835.0
2681.0	7238912.0
2682.0	6910997.0
2683.0	7137052.0
2684.0	6963234.0
2685.0	7318147.0
2686.0	7207071.0
2687.0	7421337.0
2688.0	7634749.0
2689.0	7596222.0
2690.0	8005043.0
2691.0	7776031.0
2692.0	8031854.0
2693.0	7975316.0
2694.0	8018731.0
2695.0	7867867.0
2696.0	7700742.0
2697.0	7687972.0
2698.0	7290912.0
2699.0	7370468.0
2700.0	7000880.0
2701.0	7308552.0
2702.0	7177342.0
2703.0	7217888.0
2704.0	7360150.0
2705.0	7236735.0
2706.0	7482374.0
2707.0	7412775.0
2708.0	7780594.0
2709.0	7603780.0
2710.0	7947784.0
2711.0	8041654.0
2712.0	8007806.0
2713.0	8135479.0
2714.0	7815507.0
2715.0	8055275.0
2716.0	7500651.0
2717.0	7554448.0
2718.0	7469993.0
2719.0	7536309.0
2720.0	7357855.0
2721.0	7183781.0
2722.0	7181454.0
2723.0	6710818.0
2724.0	6997501.0
2725.0	6943070.0
2726.0	7387552.0
2727.0	7435688.0
2728.0	7742843.0
2729.0	7851794.0
2730.0	7625626.0
2731.0	7916077.0
2732.0	7843007.0
2733.0	8083300.0
2734.0	7894024.0
2735.0	8162434.0
2736.0	8111875.0
2737.0	7865977.0
2738.0	7771244.0
2739.0	7375353.0
2740.0	7539985.0
2741.0	7082492.0
2742.0	7207857.0
2743.0	7104618.0
2744.0	7140797.0
2745.0	7258018.0
2746.0	7095738.0
2747.0	7429723.0
2748.0	7421302.0
2749.0	7782409.0
2750.0	7683258.0
2751.0	8123418.0
2752.0	8073673.0
2753.0	8075889.0
2754.0	8110065.0
2755.0	7836134.0
2756.0	8067898.0
2757.0	7558518.0
2758.0	7630534.0
2759.0	7301733.0
2760.0	7228287.0
2761.0	7197371.0
2762.0	6983979.0
2763.0	7273334.0
2764.0	6925111.0
2765.0	7348065.0
2766.0	7189301.0
2767.0	7588181.0
2768.0	7599366.0
2769.0	7721976.0
2770.0	7879111.0
2771.0	7729219.0
2772.0	8128337.0
2773.0	7863652.0
2774.0	8112214.0
2775.0	7905314.0
2776.0	7913257.0
2777.0	7645318.0
2778.0	7395540.0
2779.0	7487102.0
2780.0	7003778.0
2781.0	7333955.0
2782.0	7079306.0
2783.0	7190730.0
2784.0	7154630.0
2785.0	7248993.0
2786.0	7261908.0
2787.0	7180014.0
2788.0	7758024.0
2789.0	7593610.0
2790.0	7951416.0
2791.0	7730011.0
2792.0	8027344.0
2793.0	7882501.0
2794.0	7837071.0
2795.0	7965113.0
2796.0	7604564.0
2797.0	7752180.0
2798.0	7299281.0
2799.0	7380203.0
2800.0	7108589.0
2801.0	7171278.0
2802.0	7171700.0
2803.0	7012668.0
2804.0	7365432.0
2805.0	7185875.0
2806.0	7562863.0
2807.0	7388161.0
2808.0	7829705.0
2809.0	7832305.0
2810.0	7981092.0
2811.0	8149877.0
2812.0	8000249.0
2813.0	8310278.0
2814.0	7993187.0
2815.0	8116578.0
2816.0	7890178.0
2817.0	7864283.0
2818.0	7516655.0
2819.0	7354833.0
2820.0	7421886.0
2821.0	7286688.0
2822.0	7466604.0
2823.0	7127638.0
2824.0	7326836.0
2825.0	7105292.0
2826.0	7390516.0
2827.0	7500856.0
2828.0	7499826.0
2829.0	7720793.0
2830.0	7707701.0
2831.0	8091609.0
2832.0	7997833.0
2833.0	8330678.0
2834.0	8112285.0
2835.0	8098022.0
2836.0	8209335.0
2837.0	7912538.0
2838.0	7956814.0
2839.0	7591155.0
2840.0	7666653.0
2841.0	7395478.0
2842.0	7394778.0
2843.0	7378639.0
2844.0	7383844.0
2845.0	7537507.0
2846.0	7397895.0
2847.0	7649978.0
2848.0	7501312.0
2849.0	7877869.0
2850.0	7856791.0
2851.0	8180439.0
2852.0	8213642.0
2853.0	8164797.0
2854.0	8280361.0
2855.0	7864265.0
2856.0	8017966.0
2857.0	7607853.0
2858.0	7678917.0
2859.0	7398136.0
2860.0	7299954.0
2861.0	7241196.0
2862.0	7061418.0
2863.0	7398270.0
2864.0	7120492.0
2865.0	7427710.0
2866.0	7262569.0
2867.0	7445122.0
2868.0	7516475.0
2869.0	7638968.0
2870.0	7877973.0
2871.0	7845394.0
2872.0	8344602.0
2873.0	8121525.0
2874.0	8233398.0
2875.0	7849305.0
2876.0	7874061.0
2877.0	7682668.0
2878.0	7421279.0
2879.0	7514370.0
2880.0	7227671.0
2881.0	7456110.0
2882.0	7025814.0
2883.0	7180401.0
2884.0	6927669.0
2885.0	7018999.0
2886.0	7226768.0
2887.0	7262329.0
2888.0	7591659.0
2889.0	7433974.0
2890.0	7882733.0
2891.0	7690533.0
2892.0	7834356.0
2893.0	7879742.0
2894.0	7852571.0
2895.0	7969696.0
2896.0	7664557.0
2897.0	7802170.0
2898.0	7326990.0
2899.0	7397381.0
2900.0	7214961.0
2901.0	7166072.0
2902.0	7117559.0
2903.0	6926912.0
2904.0	7162176.0
2905.0	6859052.0
2906.0	7134970.0
2907.0	7027704.0
2908.0	7424321.0
2909.0	7570818.0
2910.0	7611949.0
2911.0	7816555.0
2912.0	7652788.0
2913.0	7857738.0
2914.0	7783722.0
2915.0	8046925.0
2916.0	7769969.0
2917.0	7688520.0
2918.0	7421077.0
2919.0	7111870.0
2920.0	7192939.0
2921.0	6784576.0
2922.0	6929537.0
2923.0	6826780.0
2924.0	6921487.0
2925.0	6944982.0
2926.0	7085614.0
2927.0	7151242.0
2928.0	7173991.0
2929.0	7659962.0
2930.0	7541895.0
2931.0	7917487.0
2932.0	7859063.0
2933.0	8003247.0
2934.0	7982689.0
2935.0	7895663.0
2936.0	8008641.0
2937.0	7533025.0
2938.0	7558175.0
2939.0	7197230.0
2940.0	7295284.0
2941.0	7000228.0
2942.0	6867748.0
2943.0	6924181.0
2944.0	6895910.0
2945.0	7203454.0
2946.0	6859409.0
2947.0	7330751.0
2948.0	7157028.0
2949.0	7416024.0
2950.0	7440179.0
2951.0	7578724.0
2952.0	7801052.0
2953.0	7514863.0
2954.0	7725569.0
2955.0	7265692.0
2956.0	7400670.0
2957.0	6827470.0
2958.0	6533943.0
2959.0	6304005.0
2960.0	5989300.0
2961.0	6088802.0
2962.0	5853800.0
2963.0	6248112.0
2964.0	5890286.0
2965.0	6125960.0
2966.0	6105214.0
2967.0	6400170.0
2968.0	6736008.0
2969.0	6713616.0
2970.0	7104074.0
2971.0	6922131.0
2972.0	7383641.0
2973.0	7338166.0
2974.0	7530188.0
2975.0	7415383.0
2976.0	7071793.0
2977.0	6976445.0
2978.0	6584971.0
2979.0	6650779.0
2980.0	6387997.0
2981.0	6696668.0
2982.0	6630426.0
2983.0	6971987.0
2984.0	7299725.0
2985.0	7508834.0
2986.0	7927866.0
2987.0	7891011.0
2988.0	8556417.0
2989.0	8698818.0
2990.0	9237976.0
2991.0	9365612.0
2992.0	9457481.0
2993.0	9484075.0
2994.0	9225432.0
2995.0	9378852.0
2996.0	9012504.0
2997.0	9125398.0
2998.0	8750929.0
2999.0	8795949.0
3000.0	8442571.0
3001.0	8281626.0
3002.0	8329544.0
3003.0	7955265.0
3004.0	7895160.0
3005.0	7530501.0
3006.0	7688182.0
3007.0	7487081.0
3008.0	7596647.0
3009.0	7699934.0
3010.0	7703574.0
3011.0	8021543.0
3012.0	7632005.0
3013.0	7923650.0
3014.0	7784534.0
3015.0	8042164.0
3016.0	7929675.0
3017.0	7676444.0
3018.0	7453790.0
3019.0	7023444.0
3020.0	7194157.0
3021.0	7018472.0
3022.0	7206742.0
3023.0	6842702.0
3024.0	7072212.0
3025.0	7214462.0
3026.0	7029329.0
3027.0	7289382.0
3028.0	7235255.0
3029.0	7651702.0
3030.0	7454893.0
3031.0	7826315.0
3032.0	7659701.0
3033.0	7885971.0
3034.0	7803799.0
3035.0	7575212.0
3036.0	7725044.0
3037.0	7363436.0
3038.0	7538962.0
3039.0	7090413.0
3040.0	7204964.0
3041.0	7001549.0
3042.0	6936428.0
3043.0	7058377.0
3044.0	6737841.0
3045.0	6987779.0
3046.0	6833349.0
3047.0	7202309.0
3048.0	7321856.0
3049.0	7499914.0
3050.0	7504974.0
3051.0	7449414.0
3052.0	7755132.0
3053.0	7545599.0
3054.0	7777100.0
3055.0	7405526.0
3056.0	7559912.0
3057.0	7324424.0
3058.0	7259985.0
3059.0	7317442.0
3060.0	7140469.0
3061.0	7104031.0
3062.0	6689870.0
3063.0	6940213.0
3064.0	6650432.0
3065.0	6842544.0
3066.0	6763661.0
3067.0	6906261.0
3068.0	7206880.0
3069.0	7217262.0
3070.0	7577292.0
3071.0	7356291.0
3072.0	7738690.0
3073.0	7592279.0
3074.0	7761339.0
3075.0	7762967.0
3076.0	7530199.0
3077.0	7526746.0
3078.0	7043339.0
3079.0	7255934.0
3080.0	6798661.0
3081.0	6789239.0
3082.0	6740815.0
3083.0	6789382.0
3084.0	6749359.0
3085.0	6740962.0
3086.0	7081292.0
3087.0	6875630.0
3088.0	7347130.0
3089.0	7110720.0
3090.0	7483311.0
3091.0	7624711.0
3092.0	7601438.0
3093.0	7644437.0
3094.0	7346920.0
3095.0	7617957.0
3096.0	7306062.0
3097.0	7521644.0
3098.0	7167471.0
3099.0	7112981.0
3100.0	6827040.0
3101.0	6653162.0
3102.0	6891360.0
3103.0	6631840.0
3104.0	6855387.0
3105.0	6724380.0
3106.0	7014980.0
3107.0	6903725.0
3108.0	7030041.0
3109.0	7179985.0
3110.0	7158163.0
3111.0	7482631.0
3112.0	7299229.0
3113.0	7669358.0
3114.0	7517059.0
3115.0	7708430.0
3116.0	7413314.0
3117.0	7175742.0
3118.0	7141851.0
3119.0	6827187.0
3120.0	7053390.0
3121.0	6604308.0
3122.0	6771656.0
3123.0	6538351.0
3124.0	6611152.0
3125.0	6549534.0
3126.0	6624404.0
3127.0	6806319.0
3128.0	6622820.0
3129.0	7104550.0
3130.0	6974358.0
3131.0	7340159.0
3132.0	7245855.0
3133.0	7392156.0
3134.0	7357234.0
3135.0	7222823.0
3136.0	7440432.0
3137.0	6914499.0
3138.0	7099814.0
3139.0	6807913.0
3140.0	6741877.0
3141.0	6521021.0
3142.0	6465633.0
3143.0	6483131.0
3144.0	6327629.0
3145.0	6754405.0
3146.0	6515043.0
3147.0	6821007.0
3148.0	6811948.0
3149.0	7088897.0
3150.0	7339000.0
3151.0	7362473.0
3152.0	7679729.0
3153.0	7450127.0
3154.0	7722925.0
3155.0	7277140.0
3156.0	7372016.0
3157.0	7229725.0
3158.0	7069623.0
3159.0	7154552.0
3160.0	6775716.0
3161.0	6824726.0
3162.0	6469273.0
3163.0	6693496.0
3164.0	6492080.0
3165.0	6749374.0
3166.0	6826029.0
3167.0	6857873.0
3168.0	7093595.0
3169.0	6907319.0
3170.0	7373605.0
3171.0	7165269.0
3172.0	7530860.0
3173.0	7433699.0
3174.0	7408225.0
3175.0	7463472.0
3176.0	7257893.0
3177.0	7562270.0
3178.0	7091680.0
3179.0	7277167.0
3180.0	6852885.0
3181.0	6897363.0
3182.0	6798238.0
3183.0	6755236.0
3184.0	6849614.0
3185.0	6607627.0
3186.0	6958093.0
3187.0	6840262.0
3188.0	7350872.0
3189.0	7340094.0
3190.0	7523547.0
3191.0	7743422.0
3192.0	7636100.0
3193.0	7873607.0
3194.0	7707656.0
3195.0	7911555.0
3196.0	7598898.0
3197.0	7646344.0
3198.0	7371310.0
3199.0	7262585.0
3200.0	7238234.0
3201.0	6932848.0
3202.0	7051889.0
3203.0	6789679.0
3204.0	6996906.0
3205.0	6791344.0
3206.0	7013230.0
3207.0	6998251.0
3208.0	7057649.0
3209.0	7343079.0
3210.0	7243978.0
3211.0	7751457.0
3212.0	7618301.0
3213.0	7944673.0
3214.0	7722753.0
3215.0	7845308.0
3216.0	7693503.0
3217.0	7489361.0
3218.0	7638423.0
3219.0	7115649.0
3220.0	7265802.0
3221.0	6897423.0
3222.0	7088968.0
3223.0	6850465.0
3224.0	6928518.0
3225.0	6927267.0
3226.0	6902308.0
3227.0	7286351.0
3228.0	7213306.0
3229.0	7550873.0
3230.0	7544052.0
3231.0	7627863.0
3232.0	7663132.0
3233.0	7682945.0
3234.0	7910548.0
3235.0	7508021.0
3236.0	7742713.0
3237.0	7517953.0
3238.0	7612112.0
3239.0	7182666.0
3240.0	7173710.0
3241.0	7139221.0
3242.0	6949348.0
3243.0	7023558.0
3244.0	6587816.0
3245.0	6971137.0
3246.0	6829110.0
3247.0	7063987.0
3248.0	7119853.0
3249.0	7329409.0
3250.0	7669333.0
3251.0	7728132.0
3252.0	7985063.0
3253.0	7716095.0
3254.0	7963817.0
3255.0	7701387.0
3256.0	7683726.0
3257.0	7533992.0
3258.0	7429035.0
3259.0	7491440.0
3260.0	7139793.0
3261.0	7155242.0
3262.0	6744623.0
3263.0	6965871.0
3264.0	6650458.0
3265.0	6903953.0
3266.0	6940273.0
3267.0	6955288.0
3268.0	7305877.0
3269.0	7184008.0
3270.0	7553472.0
3271.0	7460720.0
3272.0	7724909.0
3273.0	7693189.0
3274.0	7763761.0
3275.0	7893201.0
3276.0	7578880.0
3277.0	7657417.0
3278.0	7290765.0
3279.0	7336030.0
3280.0	7022806.0
3281.0	7085195.0
3282.0	6957107.0
3283.0	6890484.0
3284.0	6919457.0
3285.0	6711531.0
3286.0	7096351.0
3287.0	6817111.0
3288.0	7303164.0
3289.0	7205281.0
3290.0	7454281.0
3291.0	7566053.0
3292.0	7632706.0
3293.0	7832495.0
3294.0	7609712.0
3295.0	7843701.0
3296.0	7501687.0
3297.0	7757070.0
3298.0	7474832.0
3299.0	7506347.0
3300.0	7292217.0
3301.0	6938204.0
3302.0	7023678.0
3303.0	6656427.0
3304.0	6915420.0
3305.0	6675482.0
3306.0	6952018.0
3307.0	6901756.0
3308.0	7320389.0
3309.0	7591942.0
3310.0	7354370.0
3311.0	7555539.0
3312.0	7433034.0
3313.0	7809295.0
3314.0	7582860.0
3315.0	7770686.0
3316.0	7687761.0
3317.0	7456799.0
3318.0	7636831.0
3319.0	7301368.0
3320.0	7492709.0
3321.0	7001614.0
3322.0	7143898.0
3323.0	6923434.0
3324.0	7087584.0
3325.0	7128713.0
3326.0	7077200.0
3327.0	7288549.0
3328.0	7062879.0
3329.0	7428357.0
3330.0	7180687.0
3331.0	7535510.0
3332.0	7670327.0
3333.0	7834838.0
3334.0	7801867.0
3335.0	7625671.0
3336.0	7964311.0
3337.0	7510658.0
3338.0	7639600.0
3339.0	7102369.0
3340.0	7151890.0
3341.0	6931456.0
3342.0	6884278.0
3343.0	6950093.0
3344.0	6776462.0
3345.0	7094314.0
3346.0	6797402.0
3347.0	7200488.0
3348.0	7067845.0
3349.0	7363320.0
3350.0	7472471.0
3351.0	7475824.0
3352.0	7734721.0
3353.0	7541189.0
3354.0	7918419.0
3355.0	7570560.0
3356.0	7853924.0
3357.0	7622964.0
3358.0	7466667.0
3359.0	7497057.0
3360.0	7251628.0
3361.0	7301569.0
3362.0	6831290.0
3363.0	7008119.0
3364.0	6750947.0
3365.0	6929279.0
3366.0	7036586.0
3367.0	7003601.0
3368.0	7263679.0
3369.0	7180477.0
3370.0	7642216.0
3371.0	7453494.0
3372.0	7822321.0
3373.0	7770456.0
3374.0	7800896.0
3375.0	7932867.0
3376.0	7645286.0
3377.0	7840006.0
3378.0	7393373.0
3379.0	7492231.0
3380.0	7127079.0
3381.0	7124944.0
3382.0	7013774.0
3383.0	6773964.0
3384.0	7048325.0
3385.0	6874302.0
3386.0	7206080.0
3387.0	6949904.0
3388.0	7362033.0
3389.0	7405839.0
3390.0	7493460.0
3391.0	7708085.0
3392.0	7666034.0
3393.0	8029452.0
3394.0	7757137.0
3395.0	8048233.0
3396.0	7620020.0
3397.0	7682489.0
3398.0	7721847.0
3399.0	7543871.0
3400.0	7544109.0
3401.0	7178558.0
3402.0	7302826.0
3403.0	6970323.0
3404.0	7116828.0
3405.0	6997961.0
3406.0	7184780.0
3407.0	7256859.0
3408.0	7313454.0
3409.0	7520267.0
3410.0	7297089.0
3411.0	7746444.0
3412.0	7638938.0
3413.0	7980994.0
3414.0	7910671.0
3415.0	7900751.0
3416.0	8014965.0
3417.0	7727097.0
3418.0	7813926.0
3419.0	7242084.0
3420.0	7484973.0
3421.0	7148631.0
3422.0	7148096.0
3423.0	6808008.0
3424.0	6790206.0
3425.0	7030863.0
3426.0	6838554.0
3427.0	7223486.0
3428.0	7064583.0
3429.0	7383728.0
3430.0	7349046.0
3431.0	7583027.0
3432.0	7630083.0
3433.0	7665466.0
3434.0	7985982.0
3435.0	7620755.0
3436.0	7618830.0
3437.0	7379661.0
3438.0	7623023.0
3439.0	7302131.0
3440.0	7087208.0
3441.0	7143602.0
3442.0	6844613.0
3443.0	7090221.0
3444.0	6796165.0
3445.0	7049872.0
3446.0	7001145.0
3447.0	7180068.0
3448.0	7252834.0
3449.0	7212715.0
3450.0	7445644.0
3451.0	7270012.0
3452.0	7739978.0
3453.0	7459596.0
3454.0	7658854.0
3455.0	7598305.0
3456.0	7597896.0
3457.0	7593025.0
3458.0	7206325.0
3459.0	7365422.0
3460.0	6991567.0
3461.0	7027443.0
3462.0	6721230.0
3463.0	6791834.0
3464.0	6610841.0
3465.0	6679872.0
3466.0	7000636.0
3467.0	6912551.0
3468.0	7210937.0
3469.0	6982254.0
3470.0	7319168.0
3471.0	7222857.0
3472.0	7432275.0
3473.0	7691895.0
3474.0	7616783.0
3475.0	7894595.0
3476.0	7529761.0
3477.0	7666837.0
3478.0	7219106.0
3479.0	7224493.0
3480.0	7079650.0
3481.0	6798713.0
3482.0	7002809.0
3483.0	6719607.0
3484.0	6956545.0
3485.0	6714865.0
3486.0	7052332.0
3487.0	6908976.0
3488.0	7085300.0
3489.0	7189051.0
3490.0	7054734.0
3491.0	7337739.0
3492.0	7253332.0
3493.0	7721907.0
3494.0	7485463.0
3495.0	7596066.0
3496.0	7486493.0
3497.0	7434032.0
3498.0	7345606.0
3499.0	7165121.0
3500.0	7357217.0
3501.0	6918490.0
3502.0	7104830.0
3503.0	6800062.0
3504.0	6788826.0
3505.0	6758977.0
3506.0	6695359.0
3507.0	6913823.0
3508.0	6746754.0
3509.0	7286878.0
3510.0	7168114.0
3511.0	7402314.0
3512.0	7450813.0
3513.0	7603353.0
3514.0	7559768.0
3515.0	7351906.0
3516.0	7453886.0
3517.0	7105852.0
3518.0	7356496.0
3519.0	6815131.0
3520.0	6794924.0
3521.0	6508946.0
3522.0	6210974.0
3523.0	6151566.0
3524.0	5620487.0
3525.0	5793620.0
3526.0	5567666.0
3527.0	5915331.0
3528.0	5701403.0
3529.0	5985990.0
3530.0	6245453.0
3531.0	6254700.0
3532.0	6712927.0
3533.0	6628615.0
3534.0	7052338.0
3535.0	6716799.0
3536.0	6785744.0
3537.0	6624353.0
3538.0	6556184.0
3539.0	6715015.0
3540.0	6507431.0
3541.0	6507539.0
3542.0	5952479.0
3543.0	6114033.0
3544.0	5774701.0
3545.0	5810364.0
3546.0	6106368.0
3547.0	6290718.0
3548.0	7026263.0
3549.0	7202915.0
3550.0	7938515.0
3551.0	7952145.0
3552.0	8434259.0
3553.0	8742876.0
3554.0	8936695.0
3555.0	9330659.0
3556.0	9273361.0
3557.0	9484024.0
3558.0	9028470.0
3559.0	9032888.0
3560.0	8597979.0
3561.0	8612082.0
3562.0	8486819.0
3563.0	8256825.0
3564.0	8297296.0
3565.0	8060773.0
3566.0	8441793.0
3567.0	7919493.0
3568.0	8048617.0
3569.0	7956628.0
3570.0	7839727.0
3571.0	7919968.0
3572.0	7744333.0
3573.0	8020930.0
3574.0	7728292.0
3575.0	7903669.0
3576.0	7544631.0
3577.0	7664599.0
3578.0	7523977.0
3579.0	7273836.0
3580.0	7248736.0
3581.0	6767470.0
3582.0	6900135.0
3583.0	6663020.0
3584.0	6899919.0
3585.0	6622190.0
3586.0	6670122.0
3587.0	7039157.0
3588.0	7046126.0
3589.0	7376332.0
3590.0	7201843.0
3591.0	7607167.0
3592.0	7440991.0
3593.0	7688756.0
3594.0	7622117.0
3595.0	7546806.0
3596.0	7486395.0
3597.0	7215335.0
3598.0	7435669.0
3599.0	6992148.0
3600.0	7107472.0
3601.0	6844769.0
3602.0	6761335.0
3603.0	6767170.0
3604.0	6572733.0
3605.0	6779838.0
3606.0	6522374.0
3607.0	6729620.0
3608.0	6554949.0
3609.0	7083057.0
3610.0	7364856.0
3611.0	7430392.0
3612.0	7580314.0
3613.0	7354553.0
3614.0	7633893.0
3615.0	7580192.0
3616.0	7719850.0
3617.0	7398297.0
3618.0	7234440.0
3619.0	7089388.0
3620.0	6819238.0
3621.0	7018557.0
3622.0	6612476.0
3623.0	6775826.0
3624.0	6503575.0
3625.0	6721555.0
3626.0	6629217.0
3627.0	6618239.0
3628.0	6897785.0
3629.0	7026221.0
3630.0	7261260.0
3631.0	6870084.0
3632.0	7256237.0
3633.0	7335132.0
3634.0	7561509.0
3635.0	7541811.0
3636.0	7495372.0
3637.0	7673645.0
3638.0	7103522.0
3639.0	7241020.0
3640.0	6725075.0
3641.0	6985663.0
3642.0	6750716.0
3643.0	6697201.0
3644.0	6793816.0
3645.0	6510775.0
3646.0	6794545.0
3647.0	6632868.0
3648.0	7010480.0
3649.0	6966276.0
3650.0	7168700.0
3651.0	7160446.0
3652.0	7182548.0
3653.0	7492941.0
3654.0	7338575.0
3655.0	7556999.0
3656.0	7243385.0
3657.0	7380255.0
3658.0	7217010.0
3659.0	7098016.0
3660.0	7038825.0
3661.0	6657123.0
3662.0	6869592.0
3663.0	6448916.0
3664.0	6685166.0
3665.0	6403570.0
3666.0	6639513.0
3667.0	6680288.0
3668.0	6663258.0
3669.0	7011202.0
3670.0	6897947.0
3671.0	7274971.0
3672.0	6985090.0
3673.0	7234510.0
3674.0	7131237.0
3675.0	7191575.0
3676.0	7261765.0
3677.0	6984820.0
3678.0	7095909.0
3679.0	6810664.0
3680.0	7042521.0
3681.0	6491494.0
3682.0	6486357.0
3683.0	6421987.0
3684.0	6241966.0
3685.0	6469325.0
3686.0	6322637.0
3687.0	6633382.0
3688.0	6567665.0
3689.0	6894519.0
3690.0	6827801.0
3691.0	6957069.0
3692.0	7162542.0
3693.0	7020789.0
3694.0	7337178.0
3695.0	7053666.0
3696.0	7320224.0
3697.0	6908102.0
3698.0	6992389.0
3699.0	6815944.0
3700.0	6680194.0
3701.0	6772334.0
3702.0	6382332.0
3703.0	6585813.0
3704.0	6171462.0
3705.0	6462345.0
3706.0	6368828.0
3707.0	6650235.0
3708.0	6788920.0
3709.0	6566652.0
3710.0	6882137.0
3711.0	6700753.0
3712.0	7076668.0
3713.0	7024170.0
3714.0	7300039.0
3715.0	7175524.0
3716.0	7052337.0
3717.0	7147199.0
3718.0	6862946.0
3719.0	7066286.0
3720.0	6659376.0
3721.0	6775413.0
3722.0	6488238.0
3723.0	6539568.0
3724.0	6366698.0
3725.0	6366329.0
3726.0	6520524.0
3727.0	6430466.0
3728.0	6774043.0
3729.0	6552022.0
3730.0	6953027.0
3731.0	6963439.0
3732.0	7124343.0
3733.0	7335337.0
3734.0	7272399.0
3735.0	7523105.0
3736.0	7166527.0
3737.0	7451554.0
3738.0	7119039.0
3739.0	7145943.0
3740.0	6935692.0
3741.0	6722990.0
3742.0	6682116.0
3743.0	6503927.0
3744.0	6732720.0
3745.0	6450905.0
3746.0	6682480.0
3747.0	6547443.0
3748.0	6716258.0
3749.0	7036100.0
3750.0	7123484.0
3751.0	7399140.0
3752.0	7205596.0
3753.0	7718804.0
3754.0	7482763.0
3755.0	7624806.0
3756.0	7518454.0
3757.0	7439684.0
3758.0	7406208.0
3759.0	7145878.0
3760.0	7195299.0
3761.0	6880261.0
3762.0	7053875.0
3763.0	6678020.0
3764.0	6731420.0
3765.0	6636487.0
3766.0	6633740.0
3767.0	6888557.0
3768.0	6829452.0
3769.0	7163667.0
3770.0	7016203.0
3771.0	7335003.0
3772.0	7231739.0
3773.0	7433661.0
3774.0	7834910.0
3775.0	7647930.0
3776.0	7753641.0
3777.0	7470109.0
3778.0	7640825.0
3779.0	7265030.0
3780.0	7183002.0
3781.0	7090481.0
3782.0	6856578.0
3783.0	6825233.0
3784.0	6537224.0
3785.0	6834115.0
3786.0	6652159.0
3787.0	7034528.0
3788.0	6887259.0
3789.0	7057539.0
3790.0	7336629.0
3791.0	7329470.0
3792.0	7699129.0
3793.0	7518082.0
3794.0	7833855.0
3795.0	7660209.0
3796.0	7822661.0
3797.0	7607459.0
3798.0	7514616.0
3799.0	7423152.0
3800.0	6990794.0
3801.0	7089675.0
3802.0	6640693.0
3803.0	6890220.0
3804.0	6681903.0
3805.0	6756983.0
3806.0	6639674.0
3807.0	6764606.0
3808.0	7186243.0
3809.0	7090609.0
3810.0	7425162.0
3811.0	7280159.0
3812.0	7646141.0
3813.0	7477327.0
3814.0	7623659.0
3815.0	7694731.0
3816.0	7518732.0
3817.0	7737959.0
3818.0	7365364.0
3819.0	7528762.0
3820.0	7120482.0
3821.0	7062389.0
3822.0	6905105.0
3823.0	6756705.0
3824.0	6844554.0
3825.0	6722396.0
3826.0	6938863.0
3827.0	6804022.0
3828.0	7157712.0
3829.0	7077159.0
3830.0	7121995.0
3831.0	7369599.0
3832.0	7394251.0
3833.0	7646926.0
3834.0	7361940.0
3835.0	7732442.0
3836.0	7474870.0
3837.0	7550813.0
3838.0	7290901.0
3839.0	7247956.0
3840.0	7126870.0
3841.0	6849795.0
3842.0	7188719.0
3843.0	6841983.0
3844.0	6884144.0
3845.0	6630811.0
3846.0	6762053.0
3847.0	6936592.0
3848.0	6835204.0
3849.0	7095730.0
3850.0	7188421.0
3851.0	7615305.0
3852.0	7397362.0
3853.0	7633561.0
3854.0	7663537.0
3855.0	7698132.0
3856.0	7704660.0
3857.0	7578314.0
3858.0	7727933.0
3859.0	7218217.0
3860.0	7299006.0
3861.0	6934556.0
3862.0	7039008.0
3863.0	6899811.0
3864.0	6767287.0
3865.0	6861869.0
3866.0	6597837.0
3867.0	7001467.0
3868.0	6886873.0
3869.0	7249591.0
3870.0	7189063.0
3871.0	7473244.0
3872.0	7508949.0
3873.0	7436122.0
3874.0	7716158.0
3875.0	7278339.0
3876.0	7844105.0
3877.0	7658171.0
3878.0	7744004.0
3879.0	7364793.0
3880.0	7244164.0
3881.0	7290796.0
3882.0	6789438.0
3883.0	6881338.0
3884.0	6558371.0
3885.0	6787507.0
3886.0	6596661.0
3887.0	6789767.0
3888.0	7002551.0
3889.0	7046918.0
3890.0	7386452.0
3891.0	7079683.0
3892.0	7540560.0
3893.0	7399547.0
3894.0	7707170.0
3895.0	7572460.0
3896.0	7632002.0
3897.0	7676887.0
3898.0	7399841.0
3899.0	7576252.0
3900.0	7200177.0
3901.0	7271299.0
3902.0	7029931.0
3903.0	7078686.0
3904.0	6866189.0
3905.0	6631860.0
3906.0	6866951.0
3907.0	6617490.0
3908.0	7059994.0
3909.0	6855300.0
3910.0	7223460.0
3911.0	7137782.0
3912.0	7437684.0
3913.0	7721902.0
3914.0	7668992.0
3915.0	7874554.0
3916.0	7534972.0
3917.0	7693114.0
3918.0	7388362.0
3919.0	7287345.0
3920.0	7087135.0
3921.0	6976701.0
3922.0	7053914.0
3923.0	6705261.0
3924.0	6862694.0
3925.0	6570060.0
3926.0	6850229.0
3927.0	6803203.0
3928.0	6943839.0
3929.0	7192263.0
3930.0	7127674.0
3931.0	7454002.0
3932.0	7317876.0
3933.0	7673994.0
3934.0	7548617.0
3935.0	7712548.0
3936.0	7802119.0
3937.0	7680697.0
3938.0	7808124.0
3939.0	7500091.0
3940.0	7501644.0
3941.0	7060762.0
3942.0	7095188.0
3943.0	6952025.0
3944.0	6850207.0
3945.0	6909204.0
3946.0	6702412.0
3947.0	7020868.0
3948.0	6854108.0
3949.0	7193707.0
3950.0	7291737.0
3951.0	7709265.0
3952.0	7806192.0
3953.0	7735445.0
3954.0	7994646.0
3955.0	7697093.0
3956.0	7898407.0
3957.0	7587378.0
3958.0	7806311.0
3959.0	7516766.0
3960.0	7507534.0
3961.0	7409351.0
3962.0	7013181.0
3963.0	7074803.0
3964.0	6544867.0
3965.0	6878931.0
3966.0	6864150.0
3967.0	7013544.0
3968.0	7014377.0
3969.0	7116824.0
3970.0	7535951.0
3971.0	7400735.0
3972.0	7737315.0
3973.0	7665741.0
3974.0	8001353.0
3975.0	7751669.0
3976.0	7753701.0
3977.0	7728210.0
3978.0	7479931.0
3979.0	7558676.0
3980.0	7156003.0
3981.0	7245261.0
3982.0	6945335.0
3983.0	7139078.0
3984.0	7009015.0
3985.0	6899791.0
3986.0	7141633.0
3987.0	6854973.0
3988.0	7216484.0
3989.0	6997914.0
3990.0	7454462.0
3991.0	7412204.0
3992.0	7453424.0
3993.0	7592292.0
3994.0	7622439.0
3995.0	7940402.0
3996.0	7626709.0
3997.0	7781542.0
3998.0	7522467.0
3999.0	7557337.0
4000.0	7387232.0
4001.0	7200541.0
4002.0	7153410.0
4003.0	6771191.0
4004.0	6926662.0
4005.0	6632918.0
4006.0	6873977.0
4007.0	6733730.0
4008.0	6778635.0
4009.0	7009436.0
4010.0	7092568.0
4011.0	7452605.0
4012.0	7311830.0
4013.0	7596845.0
4014.0	7424986.0
4015.0	7713648.0
4016.0	7668857.0
4017.0	7595433.0
4018.0	7600830.0
4019.0	7311318.0
4020.0	7414952.0
4021.0	6978617.0
4022.0	7102341.0
4023.0	6696440.0
4024.0	6693619.0
4025.0	6667821.0
4026.0	6539737.0
4027.0	6740323.0
4028.0	6679131.0
4029.0	7206316.0
4030.0	6979369.0
4031.0	7246641.0
4032.0	7276801.0
4033.0	7400977.0
4034.0	7571354.0
4035.0	7481547.0
4036.0	7761613.0
4037.0	7429104.0
4038.0	7656103.0
4039.0	7431333.0
4040.0	7414180.0
4041.0	7280159.0
4042.0	6968132.0
4043.0	7005722.0
4044.0	6741474.0
4045.0	6853733.0
4046.0	6489653.0
4047.0	6758603.0
4048.0	6742236.0
4049.0	6811688.0
4050.0	7027314.0
4051.0	7091321.0
4052.0	7426120.0
4053.0	7344149.0
4054.0	7768682.0
4055.0	7647741.0
4056.0	7751160.0
4057.0	7643233.0
4058.0	7525561.0
4059.0	7545427.0
4060.0	7039669.0
4061.0	7232357.0
4062.0	6866603.0
4063.0	6970427.0
4064.0	6609214.0
4065.0	6748890.0
4066.0	6791781.0
4067.0	6564494.0
4068.0	6756996.0
4069.0	6569053.0
4070.0	7113195.0
4071.0	7007243.0
4072.0	7535455.0
4073.0	7483400.0
4074.0	7397093.0
4075.0	7478979.0
4076.0	7465177.0
4077.0	7786945.0
4078.0	7305002.0
4079.0	7435848.0
4080.0	7041052.0
4081.0	7157550.0
4082.0	6876838.0
4083.0	6737924.0
4084.0	6814491.0
4085.0	6481898.0
4086.0	6630393.0
4087.0	6337345.0
4088.0	6548663.0
4089.0	6422504.0
4090.0	6506132.0
4091.0	6484410.0
4092.0	6303229.0
4093.0	6626039.0
4094.0	6456136.0
4095.0	6786060.0
4096.0	6318659.0
4097.0	6426970.0
4098.0	6231757.0
4099.0	6214743.0
4100.0	6235067.0
4101.0	5882942.0
4102.0	6039548.0
4103.0	5535004.0
4104.0	5755547.0
4105.0	5718858.0
4106.0	5898584.0
4107.0	6163056.0
4108.0	6108806.0
4109.0	6339865.0
4110.0	5992596.0
4111.0	6280839.0
4112.0	6178317.0
4113.0	6607309.0
4114.0	6758443.0
4115.0	7062261.0
4116.0	7379175.0
4117.0	7467232.0
4118.0	8227954.0
4119.0	8031140.0
4120.0	8381949.0
4121.0	8146047.0
4122.0	8412973.0
4123.0	8514963.0
4124.0	8536428.0
4125.0	8711362.0
4126.0	8566811.0
4127.0	8816431.0
4128.0	8355621.0
4129.0	8556791.0
4130.0	8431789.0
4131.0	8795392.0
4132.0	8922683.0
4133.0	8799688.0
4134.0	9052348.0
4135.0	8816954.0
4136.0	8936605.0
4137.0	8318561.0
4138.0	8251169.0
4139.0	7973436.0
4140.0	7740914.0
4141.0	7709103.0
4142.0	7375212.0
4143.0	7252000.0
4144.0	6817816.0
4145.0	7083065.0
4146.0	6896148.0
4147.0	7120637.0
4148.0	7024200.0
4149.0	7048977.0
4150.0	7343511.0
4151.0	7212814.0
4152.0	7435104.0
4153.0	7296489.0
4154.0	7675442.0
4155.0	7621595.0
4156.0	7641867.0
4157.0	7615412.0
4158.0	7507679.0
4159.0	7537227.0
4160.0	7106256.0
4161.0	7149352.0
4162.0	6743738.0
4163.0	6858390.0
4164.0	6565151.0
4165.0	6447975.0
4166.0	6622522.0
4167.0	6515497.0
4168.0	6920218.0
4169.0	6882238.0
4170.0	7276827.0
4171.0	7022926.0
4172.0	7227344.0
4173.0	7359634.0
4174.0	7394979.0
4175.0	7489484.0
4176.0	7341083.0
4177.0	7503018.0
4178.0	7230761.0
4179.0	7357999.0
4180.0	6969497.0
4181.0	6921502.0
4182.0	6943237.0
4183.0	6585640.0
4184.0	6747393.0
4185.0	6361486.0
4186.0	6546088.0
4187.0	6355338.0
4188.0	6580377.0
4189.0	6573759.0
4190.0	6817723.0
4191.0	7198083.0
4192.0	7139025.0
4193.0	7416120.0
4194.0	7135169.0
4195.0	7575982.0
4196.0	7438430.0
4197.0	7370769.0
4198.0	7299695.0
4199.0	7121791.0
4200.0	7176297.0
4201.0	6867219.0
4202.0	7177655.0
4203.0	6615252.0
4204.0	6648563.0
4205.0	6480651.0
4206.0	6341077.0
4207.0	6485933.0
4208.0	6478976.0
4209.0	6779024.0
4210.0	6652003.0
4211.0	7061507.0
4212.0	7003073.0
4213.0	7332000.0
4214.0	7355912.0
4215.0	7292574.0
4216.0	7450367.0
4217.0	7220719.0
4218.0	7417815.0
4219.0	7038112.0
4220.0	7129143.0
4221.0	6670905.0
4222.0	6647077.0
4223.0	6636701.0
4224.0	6422329.0
4225.0	6522571.0
4226.0	6195685.0
4227.0	6639069.0
4228.0	6274757.0
4229.0	6559601.0
4230.0	6590289.0
4231.0	6799647.0
4232.0	7068130.0
4233.0	7071303.0
4234.0	7431772.0
4235.0	7082747.0
4236.0	7305506.0
4237.0	7000122.0
4238.0	7173780.0
4239.0	7091813.0
4240.0	6871245.0
4241.0	6884776.0
4242.0	6409870.0
4243.0	6532506.0
4244.0	6235270.0
4245.0	6410483.0
4246.0	6184929.0
4247.0	6347812.0
4248.0	6378723.0
4249.0	6304838.0
4250.0	6763794.0
4251.0	6666211.0
4252.0	7056084.0
4253.0	6972064.0
4254.0	7216967.0
4255.0	7028780.0
4256.0	7071754.0
4257.0	7218019.0
4258.0	6948988.0
4259.0	7055053.0
4260.0	6634957.0
4261.0	6716674.0
4262.0	6285525.0
4263.0	6358123.0
4264.0	6174890.0
4265.0	6070094.0
4266.0	6265103.0
4267.0	5988087.0
4268.0	6250129.0
4269.0	6230766.0
4270.0	6759889.0
4271.0	6874247.0
4272.0	6929049.0
4273.0	6855440.0
4274.0	6968464.0
4275.0	7201279.0
4276.0	6976974.0
4277.0	7170492.0
4278.0	6854122.0
4279.0	6891481.0
4280.0	6672690.0
4281.0	6527995.0
4282.0	6383354.0
4283.0	6230817.0
4284.0	6296028.0
4285.0	5956177.0
4286.0	6245493.0
4287.0	6012060.0
4288.0	6478161.0
4289.0	6531844.0
4290.0	6642510.0
4291.0	6815305.0
4292.0	6673691.0
4293.0	7063208.0
4294.0	6887250.0
4295.0	7239481.0
4296.0	7010917.0
4297.0	7130488.0
4298.0	7052611.0
4299.0	6921030.0
4300.0	6941596.0
4301.0	6524052.0
4302.0	6704982.0
4303.0	6303097.0
4304.0	6360318.0
4305.0	6222248.0
4306.0	6186818.0
4307.0	6293183.0
4308.0	6263152.0
4309.0	6610835.0
4310.0	6529821.0
4311.0	6974803.0
4312.0	6921382.0
4313.0	7199938.0
4314.0	7062768.0
4315.0	7122318.0
4316.0	7251156.0
4317.0	7174326.0
4318.0	7379556.0
4319.0	7076739.0
4320.0	7244076.0
4321.0	6841437.0
4322.0	6970765.0
4323.0	6653953.0
4324.0	6456305.0
4325.0	6481381.0
4326.0	6348645.0
4327.0	6712564.0
4328.0	6403507.0
4329.0	6749544.0
4330.0	6816410.0
4331.0	7084806.0
4332.0	7161361.0
4333.0	7280620.0
4334.0	7579807.0
4335.0	7269979.0
4336.0	7549960.0
4337.0	7400403.0
4338.0	7746059.0
4339.0	7254264.0
4340.0	7141237.0
4341.0	7159020.0
4342.0	6819985.0
4343.0	6921256.0
4344.0	6480812.0
4345.0	6720602.0
4346.0	6479994.0
4347.0	6775352.0
4348.0	6814754.0
4349.0	6803717.0
4350.0	7046241.0
4351.0	6928456.0
4352.0	7374029.0
4353.0	7181311.0
4354.0	7538587.0
4355.0	7328282.0
4356.0	7508733.0
4357.0	7530240.0
4358.0	7340588.0
4359.0	7466391.0
4360.0	7077438.0
4361.0	7243701.0
4362.0	6901160.0
4363.0	6912318.0
4364.0	6637193.0
4365.0	6583794.0
4366.0	6607774.0
4367.0	6513926.0
4368.0	6737836.0
4369.0	6450678.0
4370.0	6960763.0
4371.0	7044377.0
4372.0	7486876.0
4373.0	7469799.0
4374.0	7396067.0
4375.0	7630363.0
4376.0	7409239.0
4377.0	7667373.0
4378.0	7367086.0
4379.0	7450723.0
4380.0	7052045.0
4381.0	6904498.0
4382.0	6904562.0
4383.0	6691907.0
4384.0	6788764.0
4385.0	6426762.0
4386.0	6819048.0
4387.0	6535673.0
4388.0	6796487.0
4389.0	6646472.0
4390.0	6893473.0
4391.0	7128929.0
4392.0	7123965.0
4393.0	7462033.0
4394.0	7240713.0
4395.0	7646391.0
4396.0	7377796.0
4397.0	7490335.0
4398.0	7341530.0
4399.0	7192231.0
4400.0	7223283.0
4401.0	6778676.0
4402.0	6861033.0
4403.0	6649637.0
4404.0	6928839.0
4405.0	6657273.0
4406.0	6703329.0
4407.0	6608538.0
4408.0	6714176.0
4409.0	6978784.0
4410.0	6797374.0
4411.0	7236214.0
4412.0	7261031.0
4413.0	7500091.0
4414.0	7375909.0
4415.0	7557048.0
4416.0	7732220.0
4417.0	7540272.0
4418.0	7634908.0
4419.0	7179898.0
4420.0	7363347.0
4421.0	6974492.0
4422.0	7053221.0
4423.0	6795543.0
4424.0	6608393.0
4425.0	6756762.0
4426.0	6684162.0
4427.0	6898160.0
4428.0	6556200.0
4429.0	6880590.0
4430.0	6800450.0
4431.0	7115193.0
4432.0	7272042.0
4433.0	7218078.0
4434.0	7508159.0
4435.0	7359632.0
4436.0	7777290.0
4437.0	7535140.0
4438.0	7604511.0
4439.0	7363302.0
4440.0	7439910.0
4441.0	7446490.0
4442.0	6976330.0
4443.0	6989320.0
4444.0	6623023.0
4445.0	6778256.0
4446.0	6431703.0
4447.0	6643455.0
4448.0	6770819.0
4449.0	6822572.0
4450.0	7160475.0
4451.0	7067750.0
4452.0	7424777.0
4453.0	7271530.0
4454.0	7531955.0
4455.0	7495110.0
4456.0	7566700.0
4457.0	7566403.0
4458.0	7448354.0
4459.0	7758664.0
4460.0	7307017.0
4461.0	7345174.0
4462.0	6849889.0
4463.0	6895659.0
4464.0	6705212.0
4465.0	6591210.0
4466.0	6757157.0
4467.0	6509930.0
4468.0	6961929.0
4469.0	6727658.0
4470.0	6973731.0
4471.0	6946672.0
4472.0	7180953.0
4473.0	7368548.0
4474.0	7265501.0
4475.0	7576879.0
4476.0	7343377.0
4477.0	7704011.0
4478.0	7507921.0
4479.0	7518947.0
4480.0	7274096.0
4481.0	7162151.0
4482.0	7275148.0
4483.0	6862242.0
4484.0	6894888.0
4485.0	6498510.0
4486.0	6649169.0
4487.0	6606360.0
4488.0	6806031.0
4489.0	7010301.0
4490.0	6939536.0
4491.0	7269459.0
4492.0	7101982.0
4493.0	7445468.0
4494.0	7262033.0
4495.0	7593475.0
4496.0	7622122.0
4497.0	7621690.0
4498.0	7753022.0
4499.0	7302103.0
4500.0	7422909.0
4501.0	7010446.0
4502.0	7143868.0
4503.0	6878707.0
4504.0	6728617.0
4505.0	6691146.0
4506.0	6675280.0
4507.0	6775335.0
4508.0	6588766.0
4509.0	6962777.0
4510.0	6727358.0
4511.0	7096130.0
4512.0	7336959.0
4513.0	7437642.0
4514.0	7710050.0
4515.0	7589054.0
4516.0	7877263.0
4517.0	7581049.0
4518.0	7772364.0
4519.0	7560644.0
4520.0	7500593.0
4521.0	7550441.0
4522.0	7188700.0
4523.0	7196303.0
4524.0	6789626.0
4525.0	7025975.0
4526.0	6643795.0
4527.0	6701195.0
4528.0	6677894.0
4529.0	6813019.0
4530.0	7268871.0
4531.0	7222101.0
4532.0	7494269.0
4533.0	7256276.0
4534.0	7816407.0
4535.0	7923828.0
4536.0	7920723.0
4537.0	7853030.0
4538.0	7601909.0
4539.0	7791764.0
4540.0	7337155.0
4541.0	7515412.0
4542.0	7233466.0
4543.0	7232033.0
4544.0	7056576.0
4545.0	6967914.0
4546.0	7043849.0
4547.0	6693747.0
4548.0	6921213.0
4549.0	6851994.0
4550.0	7234275.0
4551.0	7272264.0
4552.0	7386288.0
4553.0	7610980.0
4554.0	7529650.0
4555.0	7913828.0
4556.0	7636145.0
4557.0	7902141.0
4558.0	7529465.0
4559.0	7600780.0
4560.0	7485138.0
4561.0	7325051.0
4562.0	7446697.0
4563.0	6943355.0
4564.0	7091131.0
4565.0	6679680.0
4566.0	6943630.0
4567.0	6711877.0
4568.0	6765011.0
4569.0	6932136.0
4570.0	6934137.0
4571.0	7316438.0
4572.0	7140839.0
4573.0	7556829.0
4574.0	7485664.0
4575.0	7709056.0
4576.0	7601676.0
4577.0	7534596.0
4578.0	7644622.0
4579.0	7468567.0
4580.0	7605748.0
4581.0	7148802.0
4582.0	7215249.0
4583.0	6909639.0
4584.0	6845351.0
4585.0	6747908.0
4586.0	6607038.0
4587.0	6813772.0
4588.0	6600164.0
4589.0	7012061.0
4590.0	6939923.0
4591.0	7215238.0
4592.0	7116079.0
4593.0	7212475.0
4594.0	7433260.0
4595.0	7284766.0
4596.0	7651634.0
4597.0	7430864.0
4598.0	7654072.0
4599.0	7311845.0
4600.0	7247779.0
4601.0	7176910.0
4602.0	6911810.0
4603.0	6955478.0
4604.0	6506039.0
4605.0	6690744.0
4606.0	6392136.0
4607.0	6783900.0
4608.0	6734278.0
4609.0	6842281.0
4610.0	7022091.0
4611.0	6845478.0
4612.0	7278340.0
4613.0	7160524.0
4614.0	7569396.0
4615.0	7415362.0
4616.0	7554172.0
4617.0	7449786.0
4618.0	7361128.0
4619.0	7386168.0
4620.0	7042312.0
4621.0	7272924.0
4622.0	6901495.0
4623.0	7120458.0
4624.0	6718032.0
4625.0	6613218.0
4626.0	6637252.0
4627.0	6513451.0
4628.0	6899775.0
4629.0	6700622.0
4630.0	7132858.0
4631.0	7068295.0
4632.0	7238123.0
4633.0	7325233.0
4634.0	7458157.0
4635.0	7631781.0
4636.0	7189227.0
4637.0	7548587.0
4638.0	7437791.0
4639.0	7712593.0
4640.0	7397053.0
4641.0	7079063.0
4642.0	6871422.0
4643.0	6667350.0
4644.0	6984331.0
4645.0	6587727.0
4646.0	6756497.0
4647.0	6530809.0
4648.0	6724584.0
4649.0	6733276.0
4650.0	6718062.0
4651.0	6985431.0
4652.0	6915346.0
4653.0	7320721.0
4654.0	7119718.0
4655.0	7402040.0
4656.0	7358031.0
4657.0	7423563.0
4658.0	7464937.0
4659.0	7117880.0
4660.0	7334394.0
4661.0	6683146.0
4662.0	6677815.0
4663.0	6153107.0
4664.0	5977526.0
4665.0	5592443.0
4666.0	5406522.0
4667.0	5516925.0
4668.0	5238918.0
4669.0	5560348.0
4670.0	5388524.0
4671.0	5782339.0
4672.0	5717866.0
4673.0	6003218.0
4674.0	6281517.0
4675.0	6402753.0
4676.0	6574498.0
4677.0	6235619.0
4678.0	6680969.0
4679.0	6446911.0
4680.0	6579232.0
4681.0	6359253.0
4682.0	6114262.0
4683.0	5963146.0
4684.0	5520083.0
4685.0	5713851.0
4686.0	5429867.0
4687.0	5817934.0
4688.0	6092270.0
4689.0	6654515.0
4690.0	7137589.0
4691.0	7601372.0
4692.0	7979690.0
4693.0	8157511.0
4694.0	8740948.0
4695.0	8750198.0
4696.0	9250638.0
4697.0	9275864.0
4698.0	9270799.0
4699.0	9308257.0
4700.0	9000419.0
4701.0	9021839.0
4702.0	8556547.0
4703.0	8404599.0
4704.0	7978914.0
4705.0	8162953.0
4706.0	8289031.0
4707.0	7974377.0
4708.0	8020428.0
4709.0	7887316.0
4710.0	8292243.0
4711.0	8069565.0
4712.0	8264422.0
4713.0	8064582.0
4714.0	8120107.0
4715.0	8105267.0
4716.0	7766720.0
4717.0	8020919.0
4718.0	7574256.0
4719.0	7822604.0
4720.0	7458395.0
4721.0	7431435.0
4722.0	7230335.0
4723.0	7061706.0
4724.0	6983047.0
4725.0	6746028.0
4726.0	6788847.0
4727.0	6540337.0
4728.0	6913097.0
4729.0	6779554.0
4730.0	6912684.0
4731.0	6935592.0
4732.0	7002934.0
4733.0	7552154.0
4734.0	7262497.0
4735.0	7605828.0
4736.0	7386933.0
4737.0	7601420.0
4738.0	7514766.0
4739.0	7552627.0
4740.0	7530001.0
4741.0	7163448.0
4742.0	7263267.0
4743.0	6750416.0
4744.0	6833887.0
4745.0	6537069.0
4746.0	6620164.0
4747.0	6567932.0
4748.0	6516867.0
4749.0	6708271.0
4750.0	6598473.0
4751.0	7061738.0
4752.0	6973918.0
4753.0	7419232.0
4754.0	7408116.0
4755.0	7535184.0
4756.0	7496474.0
4757.0	7310056.0
4758.0	7483586.0
4759.0	7100831.0
4760.0	7350270.0
4761.0	7002107.0
4762.0	7021150.0
4763.0	6763332.0
4764.0	6570173.0
4765.0	6630160.0
4766.0	6264807.0
4767.0	6567185.0
4768.0	6411935.0
4769.0	6830339.0
4770.0	6758427.0
4771.0	7006567.0
4772.0	7134542.0
4773.0	7130021.0
4774.0	7361449.0
4775.0	7130903.0
4776.0	7501586.0
4777.0	7206068.0
4778.0	7428160.0
4779.0	7287984.0
4780.0	7139282.0
4781.0	7075911.0
4782.0	6716004.0
4783.0	6918282.0
4784.0	6600565.0
4785.0	6714603.0
4786.0	6443857.0
4787.0	6510889.0
4788.0	6441295.0
4789.0	6346217.0
4790.0	6728423.0
4791.0	6624473.0
4792.0	7057741.0
4793.0	6884507.0
4794.0	7304849.0
4795.0	7267592.0
4796.0	7416508.0
4797.0	7374439.0
4798.0	7145015.0
4799.0	7286282.0
4800.0	6931170.0
4801.0	7224629.0
4802.0	6944695.0
4803.0	6932506.0
4804.0	6718950.0
4805.0	6524028.0
4806.0	6552815.0
4807.0	6298576.0
4808.0	6586519.0
4809.0	6344129.0
4810.0	6662755.0
4811.0	6629553.0
4812.0	6906529.0
4813.0	6920336.0
4814.0	6972708.0
4815.0	7271445.0
4816.0	7119329.0
4817.0	7387747.0
4818.0	7144874.0
4819.0	7398721.0
4820.0	7269306.0
4821.0	7147656.0
4822.0	6966663.0
4823.0	6565393.0
4824.0	6613593.0
4825.0	6241697.0
4826.0	6515281.0
4827.0	6137287.0
4828.0	6334443.0
4829.0	6431967.0
4830.0	6533146.0
4831.0	6669738.0
4832.0	6592967.0
4833.0	6910728.0
4834.0	6790099.0
4835.0	7179822.0
4836.0	6880664.0
4837.0	7124600.0
4838.0	7162981.0
4839.0	7208566.0
4840.0	7317573.0
4841.0	6974091.0
4842.0	6994615.0
4843.0	6541244.0
4844.0	6634236.0
4845.0	6328537.0
4846.0	6388250.0
4847.0	6338683.0
4848.0	6123470.0
4849.0	6346467.0
4850.0	6190005.0
4851.0	6678278.0
4852.0	6604556.0
4853.0	6910346.0
4854.0	6996766.0
4855.0	6989788.0
4856.0	7174840.0
4857.0	7004339.0
4858.0	7236848.0
4859.0	6950190.0
4860.0	7239045.0
4861.0	6946040.0
4862.0	6788395.0
4863.0	6602185.0
4864.0	6454528.0
4865.0	6575972.0
4866.0	6342380.0
4867.0	6617457.0
4868.0	6154370.0
4869.0	6379468.0
4870.0	6505984.0
4871.0	6646285.0
4872.0	6916363.0
4873.0	6874521.0
4874.0	7262796.0
4875.0	7043903.0
4876.0	7399810.0
4877.0	7232110.0
4878.0	7271485.0
4879.0	7150052.0
4880.0	6998001.0
4881.0	7077175.0
4882.0	6702874.0
4883.0	6869286.0
4884.0	6434354.0
4885.0	6662373.0
4886.0	6431378.0
4887.0	6590053.0
4888.0	6560356.0
4889.0	6537370.0
4890.0	6711990.0
4891.0	6529177.0
4892.0	7100937.0
4893.0	7052456.0
4894.0	7310136.0
4895.0	7322228.0
4896.0	7329570.0
4897.0	7593075.0
4898.0	7440825.0
4899.0	7689504.0
4900.0	7309560.0
4901.0	7460533.0
4902.0	7149184.0
4903.0	7128810.0
4904.0	6973985.0
4905.0	6785448.0
4906.0	6854102.0
4907.0	6410900.0
4908.0	6789887.0
4909.0	6656724.0
4910.0	6960361.0
4911.0	7010057.0
4912.0	7163384.0
4913.0	7307864.0
4914.0	7353295.0
4915.0	7776590.0
4916.0	7489862.0
4917.0	7786546.0
4918.0	7564210.0
4919.0	7709673.0
4920.0	7519194.0
4921.0	7310809.0
4922.0	7302377.0
4923.0	6887111.0
4924.0	7138877.0
4925.0	6749477.0
4926.0	6930022.0
4927.0	6793224.0
4928.0	6890645.0
4929.0	7070223.0
4930.0	6977042.0
4931.0	7288264.0
4932.0	7096830.0
4933.0	7608402.0
4934.0	7431285.0
4935.0	7609520.0
4936.0	7560440.0
4937.0	7457849.0
4938.0	7594681.0
4939.0	7440348.0
4940.0	7617455.0
4941.0	7255714.0
4942.0	7400148.0
4943.0	6963591.0
4944.0	6827499.0
4945.0	6733472.0
4946.0	6573644.0
4947.0	6803962.0
4948.0	6634765.0
4949.0	7099028.0
4950.0	6936340.0
4951.0	7063277.0
4952.0	7070569.0
4953.0	7374389.0
4954.0	7608762.0
4955.0	7426878.0
4956.0	7722445.0
4957.0	7494790.0
4958.0	7757836.0
4959.0	7565063.0
4960.0	7692307.0
4961.0	7437191.0
4962.0	7152826.0
4963.0	7260947.0
4964.0	6839115.0
4965.0	6838558.0
4966.0	6653813.0
4967.0	7013184.0
4968.0	6771719.0
4969.0	6978733.0
4970.0	7051567.0
4971.0	6996578.0
4972.0	7305850.0
4973.0	7234303.0
4974.0	7695222.0
4975.0	7434453.0
4976.0	7685600.0
4977.0	7673206.0
4978.0	7583408.0
4979.0	7710018.0
4980.0	7515921.0
4981.0	7709079.0
4982.0	7191797.0
4983.0	7190222.0
4984.0	6864219.0
4985.0	6821311.0
4986.0	6804974.0
4987.0	6876978.0
4988.0	6920878.0
4989.0	6708792.0
4990.0	7070888.0
4991.0	6710246.0
4992.0	7098253.0
4993.0	7181060.0
4994.0	7315385.0
4995.0	7642432.0
4996.0	7578657.0
4997.0	7930532.0
4998.0	7619787.0
4999.0	7706467.0
5000.0	7435729.0
5001.0	7534664.0
5002.0	7456572.0
5003.0	7157117.0
5004.0	7043532.0
5005.0	6730622.0
5006.0	6994092.0
5007.0	6656358.0
5008.0	6832378.0
5009.0	6742951.0
5010.0	6924114.0
5011.0	7208131.0
5012.0	7156781.0
5013.0	7493200.0
5014.0	7301368.0
5015.0	7632238.0
5016.0	7555588.0
5017.0	7633148.0
5018.0	7508520.0
5019.0	7485957.0
5020.0	7714307.0
5021.0	7254008.0
5022.0	7631589.0
5023.0	7347170.0
5024.0	7363256.0
5025.0	6955962.0
5026.0	6843373.0
5027.0	6818394.0
5028.0	6674550.0
5029.0	6937897.0
5030.0	6729662.0
5031.0	7129393.0
5032.0	7187199.0
5033.0	7452322.0
5034.0	7530386.0
5035.0	7616116.0
5036.0	7947434.0
5037.0	7636667.0
5038.0	7782554.0
5039.0	7534898.0
5040.0	7557354.0
5041.0	7223252.0
5042.0	7154562.0
5043.0	7104191.0
5044.0	6798679.0
5045.0	6934913.0
5046.0	6573280.0
5047.0	6832039.0
5048.0	6581491.0
5049.0	7018752.0
5050.0	6996011.0
5051.0	7095999.0
5052.0	7372250.0
5053.0	7245736.0
5054.0	7551873.0
5055.0	7346354.0
5056.0	7706322.0
5057.0	7441991.0
5058.0	7824090.0
5059.0	7797687.0
5060.0	7572015.0
5061.0	7627814.0
5062.0	7154540.0
5063.0	7380488.0
5064.0	6943932.0
5065.0	7033796.0
5066.0	6824924.0
5067.0	6864709.0
5068.0	6864790.0
5069.0	6760251.0
5070.0	7069900.0
5071.0	6891056.0
5072.0	7414635.0
5073.0	7475732.0
5074.0	7700355.0
5075.0	7663621.0
5076.0	7564306.0
5077.0	7840903.0
5078.0	7655004.0
5079.0	7893457.0
5080.0	7559640.0
5081.0	7616340.0
5082.0	7346836.0
5083.0	7300367.0
5084.0	7196668.0
5085.0	6956746.0
5086.0	7098981.0
5087.0	6748199.0
5088.0	7014549.0
5089.0	6836915.0
5090.0	7183438.0
5091.0	7248685.0
5092.0	7409352.0
5093.0	7619342.0
5094.0	7508855.0
5095.0	7912874.0
5096.0	7693341.0
5097.0	7936294.0
5098.0	7773831.0
5099.0	7918072.0
5100.0	7942743.0
5101.0	7702128.0
5102.0	7660590.0
5103.0	7272596.0
5104.0	7281932.0
5105.0	6922175.0
5106.0	7088285.0
5107.0	6911206.0
5108.0	6923377.0
5109.0	7156664.0
5110.0	6946865.0
5111.0	7450698.0
5112.0	7290454.0
5113.0	7588974.0
5114.0	7570161.0
5115.0	7805964.0
5116.0	8001921.0
5117.0	7757924.0
5118.0	8056996.0
5119.0	7559347.0
5120.0	7757595.0
5121.0	7510743.0
5122.0	7496335.0
5123.0	7369889.0
5124.0	7157582.0
5125.0	7161530.0
5126.0	6890877.0
5127.0	7192311.0
5128.0	6743246.0
5129.0	7021340.0
5130.0	6974013.0
5131.0	7240770.0
5132.0	7333946.0
5133.0	7160298.0
5134.0	7610236.0
5135.0	7464181.0
5136.0	7905407.0
5137.0	7526566.0
5138.0	7675389.0
5139.0	7465956.0
5140.0	7528908.0
5141.0	7629819.0
5142.0	7270919.0
5143.0	7534596.0
5144.0	7124544.0
5145.0	7320830.0
5146.0	6911271.0
5147.0	6861545.0
5148.0	6669977.0
5149.0	6666324.0
5150.0	6960343.0
5151.0	6880003.0
5152.0	7279078.0
5153.0	7097866.0
5154.0	7487965.0
5155.0	7427857.0
5156.0	7669455.0
5157.0	7730326.0
5158.0	7554648.0
5159.0	7736508.0
5160.0	7303754.0
5161.0	7426218.0
5162.0	7163473.0
5163.0	7260865.0
5164.0	7062277.0
5165.0	6778735.0
5166.0	6818345.0
5167.0	6557652.0
5168.0	6898615.0
5169.0	6638204.0
5170.0	6988598.0
5171.0	6980288.0
5172.0	7067368.0
5173.0	7239577.0
5174.0	7326072.0
5175.0	7683715.0
5176.0	7552489.0
5177.0	7791646.0
5178.0	7497445.0
5179.0	7649159.0
5180.0	7493827.0
5181.0	7387229.0
5182.0	7302719.0
5183.0	7099356.0
5184.0	7056183.0
5185.0	6644272.0
5186.0	6862117.0
5187.0	6599057.0
5188.0	6870608.0
5189.0	6781427.0
5190.0	6767854.0
5191.0	7005436.0
5192.0	6973548.0
5193.0	7353051.0
5194.0	7240500.0
5195.0	7582282.0
5196.0	7496516.0
5197.0	7594761.0
5198.0	7596587.0
5199.0	7502873.0
5200.0	7569489.0
5201.0	7238337.0
5202.0	7433572.0
5203.0	7015309.0
5204.0	6976712.0
5205.0	6618161.0
5206.0	6615019.0
5207.0	6874743.0
5208.0	6649021.0
5209.0	6912672.0
5210.0	6491453.0
5211.0	6815450.0
5212.0	6814000.0
5213.0	7020114.0
5214.0	7193566.0
5215.0	7281443.0
5216.0	7539749.0
5217.0	7250872.0
5218.0	7535561.0
5219.0	7016086.0
5220.0	6981726.0
5221.0	6467771.0
5222.0	6333343.0
5223.0	6186388.0
5224.0	5890819.0
5225.0	5985860.0
5226.0	5516936.0
5227.0	5681006.0
5228.0	5490377.0
5229.0	5744940.0
5230.0	5919168.0
5231.0	6126737.0
5232.0	6524638.0
5233.0	6422812.0
5234.0	6686202.0
5235.0	6519403.0
5236.0	7020447.0
5237.0	6977981.0
5238.0	7101630.0
5239.0	6994573.0
5240.0	6423038.0
5241.0	6579834.0
5242.0	6328134.0
5243.0	6668903.0
5244.0	6416610.0
5245.0	6485693.0
5246.0	6775247.0
5247.0	6813429.0
5248.0	7265419.0
5249.0	7444122.0
5250.0	7829220.0
5251.0	7909291.0
5252.0	8674013.0
5253.0	8789091.0
5254.0	9139326.0
5255.0	9342250.0
5256.0	9147674.0
5257.0	9430370.0
5258.0	9059201.0
5259.0	9283752.0
5260.0	8920934.0
5261.0	8908969.0
5262.0	8637979.0
5263.0	8471567.0
5264.0	8497194.0
5265.0	8052062.0
5266.0	8135047.0
5267.0	7583830.0
5268.0	7599976.0
5269.0	7308668.0
5270.0	7385665.0
5271.0	7620061.0
5272.0	7417174.0
5273.0	7720287.0
5274.0	7462322.0
5275.0	7809196.0
5276.0	7578439.0
5277.0	7863790.0
5278.0	7809682.0
5279.0	7625594.0
5280.0	7657003.0
5281.0	7550372.0
5282.0	7592631.0
5283.0	7119568.0
5284.0	7232156.0
5285.0	6922960.0
5286.0	6962718.0
5287.0	6831959.0
5288.0	6506926.0
5289.0	6781462.0
5290.0	6510348.0
5291.0	6909801.0
5292.0	6917469.0
5293.0	7141327.0
5294.0	7169170.0
5295.0	7227590.0
5296.0	7579063.0
5297.0	7409309.0
5298.0	7735630.0
5299.0	7473176.0
5300.0	7647985.0
5301.0	7343373.0
5302.0	7332803.0
5303.0	7201052.0
5304.0	6845697.0
5305.0	7054745.0
5306.0	6679494.0
5307.0	6725329.0
5308.0	6438072.0
5309.0	6639820.0
5310.0	6822720.0
5311.0	6879761.0
5312.0	7023016.0
5313.0	6897290.0
5314.0	7381944.0
5315.0	7277348.0
5316.0	7575048.0
5317.0	7304472.0
5318.0	7412939.0
5319.0	7528312.0
5320.0	7289111.0
5321.0	7223281.0
5322.0	6952712.0
5323.0	7141300.0
5324.0	6785558.0
5325.0	6955709.0
5326.0	6708552.0
5327.0	6597013.0
5328.0	6650963.0
5329.0	6437838.0
5330.0	6758800.0
5331.0	6587742.0
5332.0	7031893.0
5333.0	7046330.0
5334.0	7281888.0
5335.0	7277988.0
5336.0	7263454.0
5337.0	7464178.0
5338.0	7284150.0
5339.0	7626691.0
5340.0	7099368.0
5341.0	7201505.0
5342.0	7044984.0
5343.0	6889987.0
5344.0	6818866.0
5345.0	6572542.0
5346.0	6663670.0
5347.0	6286165.0
5348.0	6518213.0
5349.0	6398199.0
5350.0	6552058.0
5351.0	6576541.0
5352.0	6718329.0
5353.0	7170988.0
5354.0	7228584.0
5355.0	7599076.0
5356.0	7271672.0
5357.0	7654568.0
5358.0	7419596.0
5359.0	7461803.0
5360.0	7323446.0
5361.0	7113461.0
5362.0	7266127.0
5363.0	6841579.0
5364.0	6880682.0
5365.0	6523229.0
5366.0	6612513.0
5367.0	6345903.0
5368.0	6369502.0
5369.0	6521306.0
5370.0	6308973.0
5371.0	6706902.0
5372.0	6596525.0
5373.0	7030878.0
5374.0	7009457.0
5375.0	7079990.0
5376.0	7213159.0
5377.0	7183615.0
5378.0	7410612.0
5379.0	6962153.0
5380.0	7267771.0
5381.0	6963116.0
5382.0	7121752.0
5383.0	6887035.0
5384.0	6749894.0
5385.0	6693619.0
5386.0	6371733.0
5387.0	6551362.0
5388.0	6176376.0
5389.0	6370209.0
5390.0	6278699.0
5391.0	6447455.0
5392.0	6504550.0
5393.0	6506954.0
5394.0	6874551.0
5395.0	6917979.0
5396.0	7283432.0
5397.0	7073940.0
5398.0	7318856.0
5399.0	7164085.0
5400.0	6974370.0
5401.0	7088300.0
5402.0	6753840.0
5403.0	6957088.0
5404.0	6734576.0
5405.0	6879218.0
5406.0	6439947.0
5407.0	6373782.0
5408.0	6412840.0
5409.0	6166669.0
5410.0	6281312.0
5411.0	6054759.0
5412.0	6603610.0
5413.0	6686967.0
5414.0	7068009.0
5415.0	7179836.0
5416.0	7324036.0
5417.0	7413098.0
5418.0	7177241.0
5419.0	7353272.0
5420.0	7058972.0
5421.0	7271490.0
5422.0	6898416.0
5423.0	6814436.0
5424.0	6724596.0
5425.0	6516021.0
5426.0	6592220.0
5427.0	6300782.0
5428.0	6557838.0
5429.0	6253782.0
5430.0	6556279.0
5431.0	6496454.0
5432.0	6653538.0
5433.0	7022369.0
5434.0	7004813.0
5435.0	7472299.0
5436.0	7164457.0
5437.0	7448564.0
5438.0	7343740.0
5439.0	7459847.0
5440.0	7410840.0
5441.0	7126342.0
5442.0	7271280.0
5443.0	6876953.0
5444.0	7066812.0
5445.0	6638443.0
5446.0	6781354.0
5447.0	6578069.0
5448.0	6646459.0
5449.0	6719423.0
5450.0	6520372.0
5451.0	6890044.0
5452.0	6705211.0
5453.0	7236952.0
5454.0	7193741.0
5455.0	7453420.0
5456.0	7472130.0
5457.0	7460985.0
5458.0	7775344.0
5459.0	7530187.0
5460.0	7690399.0
5461.0	7331064.0
5462.0	7542342.0
5463.0	7163601.0
5464.0	7171466.0
5465.0	7100223.0
5466.0	6845043.0
5467.0	7057232.0
5468.0	6625705.0
5469.0	6863946.0
5470.0	6735122.0
5471.0	7013694.0
5472.0	7008185.0
5473.0	7222717.0
5474.0	7365464.0
5475.0	7300162.0
5476.0	7702750.0
5477.0	7578705.0
5478.0	7757150.0
5479.0	7454108.0
5480.0	7515874.0
5481.0	7578280.0
5482.0	7415230.0
5483.0	7634712.0
5484.0	7257884.0
5485.0	7309393.0
5486.0	6838274.0
5487.0	6713177.0
5488.0	6633414.0
5489.0	6738284.0
5490.0	6897932.0
5491.0	6858386.0
5492.0	7346075.0
5493.0	7280715.0
5494.0	7552141.0
5495.0	7479775.0
5496.0	7821126.0
5497.0	7995837.0
5498.0	7967572.0
5499.0	7938135.0
5500.0	7478227.0
5501.0	7746684.0
5502.0	7411974.0
5503.0	7337658.0
5504.0	7006236.0
5505.0	6951451.0
5506.0	6924260.0
5507.0	6725532.0
5508.0	6962968.0
5509.0	6606813.0
5510.0	6919146.0
5511.0	6779609.0
5512.0	6987372.0
5513.0	7118150.0
5514.0	7287350.0
5515.0	7601038.0
5516.0	7590606.0
5517.0	8009905.0
5518.0	7752398.0
5519.0	7946950.0
5520.0	7707336.0
5521.0	7525483.0
5522.0	7521642.0
5523.0	7240538.0
5524.0	7400709.0
5525.0	6954597.0
5526.0	7101757.0
5527.0	6706721.0
5528.0	6899394.0
5529.0	6959365.0
5530.0	7012644.0
5531.0	7225719.0
5532.0	7073688.0
5533.0	7562119.0
5534.0	7273241.0
5535.0	7579317.0
5536.0	7501171.0
5537.0	7736110.0
5538.0	7834004.0
5539.0	7759160.0
5540.0	7877777.0
5541.0	7475886.0
5542.0	7618473.0
5543.0	7182079.0
5544.0	7158308.0
5545.0	7003970.0
5546.0	6904529.0
5547.0	6940695.0
5548.0	6636689.0
5549.0	6996833.0
5550.0	6657611.0
5551.0	7065677.0
5552.0	7187912.0
5553.0	7336602.0
5554.0	7543978.0
5555.0	7403242.0
5556.0	7811033.0
5557.0	7535868.0
5558.0	7841996.0
5559.0	7704783.0
5560.0	7731089.0
5561.0	7677648.0
5562.0	7455544.0
5563.0	7555348.0
5564.0	7173530.0
5565.0	7230579.0
5566.0	6830386.0
5567.0	6955067.0
5568.0	6853255.0
5569.0	6906803.0
5570.0	7057492.0
5571.0	6771772.0
5572.0	6996510.0
5573.0	6876462.0
5574.0	7295106.0
5575.0	7306163.0
5576.0	7613913.0
5577.0	7595441.0
5578.0	7468841.0
5579.0	7987010.0
5580.0	7849491.0
5581.0	7945778.0
5582.0	7494830.0
5583.0	7553859.0
5584.0	7262347.0
5585.0	7205885.0
5586.0	7142184.0
5587.0	6874741.0
5588.0	7118736.0
5589.0	6756103.0
5590.0	7087252.0
5591.0	7033308.0
5592.0	7207152.0
5593.0	7392440.0
5594.0	7331266.0
5595.0	7589221.0
5596.0	7486773.0
5597.0	7839832.0
5598.0	7601756.0
5599.0	7862938.0
5600.0	7613248.0
5601.0	7592489.0
5602.0	7654267.0
5603.0	7206987.0
5604.0	7296942.0
5605.0	6986942.0
5606.0	7407788.0
5607.0	7167639.0
5608.0	7113484.0
5609.0	7010927.0
5610.0	6996395.0
5611.0	7255838.0
5612.0	7150225.0
5613.0	7446432.0
5614.0	7232159.0
5615.0	7701640.0
5616.0	7764993.0
5617.0	7750856.0
5618.0	8018808.0
5619.0	7786275.0
5620.0	8018827.0
5621.0	7629806.0
5622.0	7833753.0
5623.0	7448001.0
5624.0	7484356.0
5625.0	7346638.0
5626.0	7160348.0
5627.0	7215183.0
5628.0	6915355.0
5629.0	7159110.0
5630.0	6975243.0
5631.0	7424263.0
5632.0	7306776.0
5633.0	7323323.0
5634.0	7671540.0
5635.0	7626653.0
5636.0	7884667.0
5637.0	7688517.0
5638.0	8082801.0
5639.0	7970567.0
5640.0	8058000.0
5641.0	7973669.0
5642.0	7807111.0
5643.0	7838426.0
5644.0	7383524.0
5645.0	7489752.0
5646.0	7114199.0
5647.0	7285536.0
5648.0	7116596.0
5649.0	7128088.0
5650.0	7294750.0
5651.0	7145018.0
5652.0	7464767.0
5653.0	7296379.0
5654.0	7739642.0
5655.0	7491952.0
5656.0	7708423.0
5657.0	7889647.0
5658.0	7866561.0
5659.0	8018107.0
5660.0	7714369.0
5661.0	7829651.0
5662.0	7526707.0
5663.0	7534173.0
5664.0	7295782.0
5665.0	7186242.0
5666.0	7124771.0
5667.0	6953872.0
5668.0	7112715.0
5669.0	6718744.0
5670.0	6923611.0
5671.0	6817844.0
5672.0	7103942.0
5673.0	7204226.0
5674.0	7333035.0
5675.0	7638870.0
5676.0	7645036.0
5677.0	7973530.0
5678.0	7740661.0
5679.0	7807761.0
5680.0	7704899.0
5681.0	7692502.0
5682.0	7613684.0
5683.0	7477393.0
5684.0	7400235.0
5685.0	6830854.0
5686.0	7025879.0
5687.0	6819839.0
5688.0	7005190.0
5689.0	6859496.0
5690.0	6654303.0
5691.0	6850288.0
5692.0	6748665.0
5693.0	7210385.0
5694.0	7221855.0
5695.0	7649526.0
5696.0	7463178.0
5697.0	7673834.0
5698.0	7854237.0
5699.0	7773612.0
5700.0	7856014.0
5701.0	7511406.0
5702.0	7636418.0
5703.0	7199481.0
5704.0	7259710.0
5705.0	7013798.0
5706.0	6793716.0
5707.0	6849198.0
5708.0	6598579.0
5709.0	6864937.0
5710.0	6650155.0
5711.0	6823366.0
5712.0	6830390.0
5713.0	7130344.0
5714.0	7313589.0
5715.0	7344322.0
5716.0	7853411.0
5717.0	7500614.0
5718.0	7718762.0
5719.0	7417152.0
5720.0	7916056.0
5721.0	7710414.0
5722.0	7493384.0
5723.0	7530438.0
5724.0	7078711.0
5725.0	7064893.0
5726.0	6655331.0
5727.0	6941816.0
5728.0	6663816.0
5729.0	6809641.0
5730.0	6804284.0
5731.0	6852558.0
5732.0	7167494.0
5733.0	6946563.0
5734.0	7407293.0
5735.0	7203540.0
5736.0	7504671.0
5737.0	7551408.0
5738.0	7659327.0
5739.0	7748729.0
5740.0	7498494.0
5741.0	7687171.0
5742.0	7368678.0
5743.0	7441188.0
5744.0	7049265.0
5745.0	7001608.0
5746.0	6853406.0
5747.0	6627752.0
5748.0	6786001.0
5749.0	6579914.0
5750.0	6902988.0
5751.0	6645975.0
5752.0	6780872.0
5753.0	6965089.0
5754.0	6971709.0
5755.0	7046574.0
5756.0	6885878.0
5757.0	7108571.0
5758.0	6695985.0
5759.0	6842409.0
5760.0	6659264.0
5761.0	6597389.0
5762.0	6446130.0
5763.0	6272849.0
5764.0	6422714.0
5765.0	6103532.0
5766.0	6314581.0
5767.0	5981611.0
5768.0	6150010.0
5769.0	6007934.0
5770.0	5978910.0
5771.0	6198939.0
5772.0	6311278.0
5773.0	7036976.0
5774.0	6927869.0
5775.0	7163013.0
5776.0	6870516.0
5777.0	7196573.0
5778.0	7041645.0
5779.0	6973180.0
5780.0	7233170.0
5781.0	6930283.0
5782.0	7640662.0
5783.0	7507402.0
5784.0	7854123.0
5785.0	7666274.0
5786.0	7816688.0
5787.0	7997629.0
5788.0	8004451.0
5789.0	8242201.0
5790.0	8130629.0
5791.0	8536836.0
5792.0	8456621.0
5793.0	8631621.0
5794.0	8458128.0
5795.0	8751273.0
5796.0	9170091.0
5797.0	9062060.0
5798.0	9244970.0
5799.0	9035169.0
5800.0	9218992.0
5801.0	8753676.0
5802.0	8634265.0
5803.0	8308379.0
5804.0	8025301.0
5805.0	7930043.0
5806.0	7413174.0
5807.0	7468178.0
5808.0	7108185.0
5809.0	7251822.0
5810.0	6952128.0
5811.0	7066919.0
5812.0	7233583.0
5813.0	7106038.0
5814.0	7516268.0
5815.0	7296075.0
5816.0	7684538.0
5817.0	7495757.0
5818.0	7768739.0
5819.0	7737157.0
5820.0	7767790.0
5821.0	7708496.0
5822.0	7324759.0
5823.0	7569498.0
5824.0	7247673.0
5825.0	7216757.0
5826.0	6897438.0
5827.0	6879775.0
5828.0	6861515.0
5829.0	6553091.0
5830.0	6851458.0
5831.0	6726894.0
5832.0	7091085.0
5833.0	6989257.0
5834.0	7155377.0
5835.0	7313027.0
5836.0	7458220.0
5837.0	7651730.0
5838.0	7386050.0
5839.0	7845910.0
5840.0	7487608.0
5841.0	7684321.0
5842.0	7418429.0
5843.0	7328903.0
5844.0	7152442.0
5845.0	6823266.0
5846.0	6980250.0
5847.0	6578138.0
5848.0	6799926.0
5849.0	6487242.0
5850.0	6705007.0
5851.0	6721286.0
5852.0	6770699.0
5853.0	7023983.0
5854.0	6999813.0
5855.0	7384904.0
5856.0	7270373.0
5857.0	7600379.0
5858.0	7417309.0
5859.0	7636992.0
5860.0	7668833.0
5861.0	7421453.0
5862.0	7525316.0
5863.0	7072376.0
5864.0	7212435.0
5865.0	7003456.0
5866.0	6968901.0
5867.0	6788677.0
5868.0	6675504.0
5869.0	6759280.0
5870.0	6575541.0
5871.0	6900637.0
5872.0	6657064.0
5873.0	7077962.0
5874.0	7047891.0
5875.0	7244369.0
5876.0	7330465.0
5877.0	7377460.0
5878.0	7668357.0
5879.0	7369021.0
5880.0	7734666.0
5881.0	7301211.0
5882.0	7425629.0
5883.0	7095619.0
5884.0	6898436.0
5885.0	6929220.0
5886.0	6667270.0
5887.0	6819576.0
5888.0	6423136.0
5889.0	6629107.0
5890.0	6509963.0
5891.0	6726704.0
5892.0	6844968.0
5893.0	6978754.0
5894.0	7250868.0
5895.0	7101395.0
5896.0	7378944.0
5897.0	7191942.0
5898.0	7511177.0
5899.0	7392484.0
5900.0	7373555.0
5901.0	7525660.0
5902.0	7138883.0
5903.0	7268462.0
5904.0	6798323.0
5905.0	6942804.0
5906.0	6618199.0
5907.0	6541737.0
5908.0	6544385.0
5909.0	6408246.0
5910.0	6539026.0
5911.0	6392821.0
5912.0	6820093.0
5913.0	6576900.0
5914.0	6820335.0
5915.0	7076511.0
5916.0	7179095.0
5917.0	7539977.0
5918.0	7269743.0
5919.0	7525544.0
5920.0	7348967.0
5921.0	7466481.0
5922.0	7022997.0
5923.0	6898059.0
5924.0	6865331.0
5925.0	6603510.0
5926.0	6706869.0
5927.0	6324836.0
5928.0	6472047.0
5929.0	6160210.0
5930.0	6460512.0
5931.0	6429289.0
5932.0	6428615.0
5933.0	6704083.0
5934.0	6694081.0
5935.0	7158683.0
5936.0	6954391.0
5937.0	7349602.0
5938.0	7299713.0
5939.0	7387098.0
5940.0	7327849.0
5941.0	7111924.0
5942.0	7308404.0
5943.0	6812165.0
5944.0	6984048.0
5945.0	6563394.0
5946.0	6525129.0
5947.0	6428887.0
5948.0	6286064.0
5949.0	6467929.0
5950.0	6265631.0
5951.0	6647448.0
5952.0	6431337.0
5953.0	6908185.0
5954.0	6835518.0
5955.0	6944009.0
5956.0	7200967.0
5957.0	7195434.0
5958.0	7426889.0
5959.0	7152007.0
5960.0	7432123.0
5961.0	7143776.0
5962.0	7194635.0
5963.0	7017061.0
5964.0	6769931.0
5965.0	6926761.0
5966.0	6538617.0
5967.0	6645831.0
5968.0	6258057.0
5969.0	6487900.0
5970.0	6443619.0
5971.0	6566422.0
5972.0	6764744.0
5973.0	6655065.0
5974.0	6962536.0
5975.0	6919226.0
5976.0	7471383.0
5977.0	7469468.0
5978.0	7695820.0
5979.0	7627984.0
5980.0	7470382.0
5981.0	7608501.0
5982.0	7313051.0
5983.0	7430180.0
5984.0	6892634.0
5985.0	6994660.0
5986.0	6729353.0
5987.0	6558243.0
5988.0	6510337.0
5989.0	6478704.0
5990.0	6795263.0
5991.0	6713418.0
5992.0	7227067.0
5993.0	7024053.0
5994.0	7382092.0
5995.0	7553987.0
5996.0	7521921.0
5997.0	7904506.0
5998.0	7710030.0
5999.0	7991232.0
6000.0	7714007.0
6001.0	7871809.0
6002.0	7492251.0
6003.0	7327457.0
6004.0	7327363.0
6005.0	6952047.0
6006.0	7178405.0
6007.0	6730436.0
6008.0	6877853.0
6009.0	6641380.0
6010.0	6877642.0
6011.0	6830538.0
6012.0	6854969.0
6013.0	7178423.0
6014.0	7265248.0
6015.0	7668243.0
6016.0	7490111.0
6017.0	7825478.0
6018.0	7720927.0
6019.0	7747305.0
6020.0	7744497.0
6021.0	7516733.0
6022.0	7758876.0
6023.0	7424824.0
6024.0	7364541.0
6025.0	6929561.0
6026.0	7081272.0
6027.0	7109673.0
6028.0	6954358.0
6029.0	7055968.0
6030.0	6522835.0
6031.0	6861600.0
6032.0	6755269.0
6033.0	7106713.0
6034.0	7313514.0
6035.0	7402853.0
6036.0	7686883.0
6037.0	7557201.0
6038.0	7834520.0
6039.0	7479334.0
6040.0	7779095.0
6041.0	7499634.0
6042.0	7464797.0
6043.0	7306542.0
6044.0	7103167.0
6045.0	7234798.0
6046.0	6894876.0
6047.0	7054877.0
6048.0	6671034.0
6049.0	6922439.0
6050.0	6766813.0
6051.0	6833262.0
6052.0	6951143.0
6053.0	6900482.0
6054.0	7402127.0
6055.0	7247502.0
6056.0	7574862.0
6057.0	7433017.0
6058.0	7639094.0
6059.0	7551576.0
6060.0	7531297.0
6061.0	7702589.0
6062.0	7339342.0
6063.0	7564811.0
6064.0	7245517.0
6065.0	7182078.0
6066.0	6902320.0
6067.0	6814512.0
6068.0	6617464.0
6069.0	6480040.0
6070.0	6691059.0
6071.0	6519935.0
6072.0	6965828.0
6073.0	7062305.0
6074.0	7481737.0
6075.0	7467512.0
6076.0	7457768.0
6077.0	7619514.0
6078.0	7432251.0
6079.0	7820974.0
6080.0	7576718.0
6081.0	7786109.0
6082.0	7586296.0
6083.0	7511814.0
6084.0	7312409.0
6085.0	6939868.0
6086.0	7058745.0
6087.0	6731147.0
6088.0	6913026.0
6089.0	6843547.0
6090.0	6955586.0
6091.0	6834133.0
6092.0	6957515.0
6093.0	7167371.0
6094.0	7133088.0
6095.0	7486269.0
6096.0	7308124.0
6097.0	7779020.0
6098.0	7590868.0
6099.0	7638039.0
6100.0	7678722.0
6101.0	7471716.0
6102.0	7672984.0
6103.0	7380602.0
6104.0	7410442.0
6105.0	7027216.0
6106.0	7152754.0
6107.0	6988362.0
6108.0	6854600.0
6109.0	6914878.0
6110.0	6752216.0
6111.0	7128130.0
6112.0	6900136.0
6113.0	7320714.0
6114.0	7096195.0
6115.0	7346206.0
6116.0	7543912.0
6117.0	7466999.0
6118.0	7786475.0
6119.0	7441387.0
6120.0	7657034.0
6121.0	7441795.0
6122.0	7587218.0
6123.0	7292839.0
6124.0	7086754.0
6125.0	7187079.0
6126.0	6855271.0
6127.0	7019903.0
6128.0	6691231.0
6129.0	6652936.0
6130.0	6663120.0
6131.0	7003596.0
6132.0	7056041.0
6133.0	7060721.0
6134.0	7496842.0
6135.0	7236699.0
6136.0	7554004.0
6137.0	7554779.0
6138.0	7821241.0
6139.0	7766372.0
6140.0	7655294.0
6141.0	7739889.0
6142.0	7510176.0
6143.0	7709348.0
6144.0	7134116.0
6145.0	7273716.0
6146.0	6886824.0
6147.0	6742404.0
6148.0	6839181.0
6149.0	6513667.0
6150.0	6917604.0
6151.0	6739175.0
6152.0	7173111.0
6153.0	6917640.0
6154.0	7253740.0
6155.0	7399490.0
6156.0	7643825.0
6157.0	7832583.0
6158.0	7527885.0
6159.0	7883227.0
6160.0	7662800.0
6161.0	7898666.0
6162.0	7677469.0
6163.0	7588767.0
6164.0	7421982.0
6165.0	7093941.0
6166.0	7093422.0
6167.0	6726613.0
6168.0	6996069.0
6169.0	6756048.0
6170.0	6943846.0
6171.0	6950751.0
6172.0	7009524.0
6173.0	7289356.0
6174.0	7173826.0
6175.0	7677477.0
6176.0	7691103.0
6177.0	7858120.0
6178.0	7690144.0
6179.0	7678172.0
6180.0	7923098.0
6181.0	7614256.0
6182.0	7829195.0
6183.0	7367054.0
6184.0	7632152.0
6185.0	7276296.0
6186.0	7225533.0
6187.0	7148028.0
6188.0	6978019.0
6189.0	7046914.0
6190.0	6794458.0
6191.0	7072059.0
6192.0	6841006.0
6193.0	7202648.0
6194.0	7220633.0
6195.0	7382215.0
6196.0	7605755.0
6197.0	7583276.0
6198.0	7907980.0
6199.0	7608049.0
6200.0	7821694.0
6201.0	7640466.0
6202.0	7695084.0
6203.0	7550986.0
6204.0	7318574.0
6205.0	7244460.0
6206.0	6863062.0
6207.0	7137902.0
6208.0	6884951.0
6209.0	6960520.0
6210.0	6742883.0
6211.0	6765463.0
6212.0	6975703.0
6213.0	6922824.0
6214.0	7380041.0
6215.0	7275443.0
6216.0	7659189.0
6217.0	7521076.0
6218.0	7819642.0
6219.0	7778301.0
6220.0	7663260.0
6221.0	7814385.0
6222.0	7415042.0
6223.0	7658233.0
6224.0	7250267.0
6225.0	7428778.0
6226.0	7083575.0
6227.0	6893537.0
6228.0	6976301.0
6229.0	6519823.0
6230.0	6787678.0
6231.0	6599907.0
6232.0	6936513.0
6233.0	6756236.0
6234.0	7062703.0
6235.0	7228608.0
6236.0	7311720.0
6237.0	7614666.0
6238.0	7319401.0
6239.0	7683715.0
6240.0	7359566.0
6241.0	7447725.0
6242.0	7378787.0
6243.0	7515575.0
6244.0	7368350.0
6245.0	7094934.0
6246.0	7098812.0
6247.0	6718536.0
6248.0	6802957.0
6249.0	6526190.0
6250.0	6823943.0
6251.0	6877929.0
6252.0	6866022.0
6253.0	6985101.0
6254.0	6863469.0
6255.0	7317087.0
6256.0	7176691.0
6257.0	7431769.0
6258.0	7357745.0
6259.0	7631836.0
6260.0	7741600.0
6261.0	7528891.0
6262.0	7611808.0
6263.0	7203310.0
6264.0	7306391.0
6265.0	6973303.0
6266.0	6953038.0
6267.0	6996125.0
6268.0	6690941.0
6269.0	6833220.0
6270.0	6511576.0
6271.0	6859482.0
6272.0	6666879.0
6273.0	6943410.0
6274.0	6978084.0
6275.0	7272376.0
6276.0	7529048.0
6277.0	7363355.0
6278.0	7657962.0
6279.0	7393670.0
6280.0	7738056.0
6281.0	7416782.0
6282.0	7563198.0
6283.0	7482929.0
6284.0	7197655.0
6285.0	7207928.0
6286.0	6797888.0
6287.0	7015487.0
6288.0	6580362.0
6289.0	6744954.0
6290.0	6604607.0
6291.0	6738675.0
6292.0	6901255.0
6293.0	6841123.0
6294.0	7047975.0
6295.0	6841937.0
6296.0	7321288.0
6297.0	7157210.0
6298.0	7274683.0
6299.0	7244340.0
6300.0	7050793.0
6301.0	7042937.0
6302.0	6571298.0
6303.0	6589724.0
6304.0	5967536.0
6305.0	5990513.0
6306.0	5764878.0
6307.0	5657369.0
6308.0	5808162.0
6309.0	5574779.0
6310.0	5931190.0
6311.0	5608053.0
6312.0	6083237.0
6313.0	6082015.0
6314.0	6344396.0
6315.0	6494014.0
6316.0	6431602.0
6317.0	6632343.0
6318.0	6790708.0
6319.0	7323936.0
6320.0	7115099.0
6321.0	7090403.0
6322.0	6758331.0
6323.0	6732084.0
6324.0	6523942.0
6325.0	6183874.0
6326.0	6369956.0
6327.0	6171498.0
6328.0	6766133.0
6329.0	6981945.0
6330.0	7290982.0
6331.0	7536195.0
6332.0	7858152.0
6333.0	8438653.0
6334.0	8276027.0
6335.0	8923651.0
6336.0	8983856.0
6337.0	9431805.0
6338.0	9344460.0
6339.0	9254577.0
6340.0	9257690.0
6341.0	8928202.0
6342.0	9287070.0
6343.0	8854213.0
6344.0	8770679.0
6345.0	8246193.0
6346.0	8251525.0
6347.0	8070404.0
6348.0	7653810.0
6349.0	7631573.0
6350.0	7232780.0
6351.0	7455535.0
6352.0	7170246.0
6353.0	7415424.0
6354.0	7235886.0
6355.0	7111671.0
6356.0	7450958.0
6357.0	7298134.0
6358.0	7666572.0
6359.0	7552075.0
6360.0	7848467.0
6361.0	7531146.0
6362.0	7622415.0
6363.0	7509886.0
6364.0	7256717.0
6365.0	7219426.0
6366.0	6925664.0
6367.0	7073780.0
6368.0	6774583.0
6369.0	6966505.0
6370.0	6755531.0
6371.0	6749204.0
6372.0	6842958.0
6373.0	6761043.0
6374.0	7179264.0
6375.0	7029741.0
6376.0	7252616.0
6377.0	7167860.0
6378.0	7561170.0
6379.0	7553559.0
6380.0	7502049.0
6381.0	7709151.0
6382.0	7301565.0
6383.0	7634633.0
6384.0	7238456.0
6385.0	7225652.0
6386.0	6929228.0
6387.0	6777079.0
6388.0	6839127.0
6389.0	6703088.0
6390.0	6851824.0
6391.0	6474092.0
6392.0	6697012.0
6393.0	6653067.0
6394.0	6827535.0
6395.0	6921684.0
6396.0	6975591.0
6397.0	7399908.0
6398.0	7246596.0
6399.0	7562650.0
6400.0	7278461.0
6401.0	7524557.0
6402.0	7424678.0
6403.0	7330888.0
6404.0	7304642.0
6405.0	6792890.0
6406.0	6858931.0
6407.0	6499437.0
6408.0	6548483.0
6409.0	6471556.0
6410.0	6720723.0
6411.0	6747574.0
6412.0	6675718.0
6413.0	6999453.0
6414.0	6850563.0
6415.0	7310667.0
6416.0	7091426.0
6417.0	7283000.0
6418.0	7252526.0
6419.0	7472852.0
6420.0	7637750.0
6421.0	7410082.0
6422.0	7576926.0
6423.0	7134996.0
6424.0	7181269.0
6425.0	6892888.0
6426.0	6878626.0
6427.0	6700635.0
6428.0	6388776.0
6429.0	6491460.0
6430.0	6119184.0
6431.0	6447274.0
6432.0	6499488.0
6433.0	7164184.0
6434.0	7093265.0
6435.0	7122198.0
6436.0	7202709.0
6437.0	7055524.0
6438.0	7400067.0
6439.0	7250702.0
6440.0	7474058.0
6441.0	7249877.0
6442.0	7379449.0
6443.0	7222646.0
6444.0	6919808.0
6445.0	6968877.0
6446.0	6700596.0
6447.0	6924210.0
6448.0	6583123.0
6449.0	6603813.0
6450.0	6230362.0
6451.0	6347138.0
6452.0	6602965.0
6453.0	6414704.0
6454.0	6693015.0
6455.0	6652838.0
6456.0	7030963.0
6457.0	6899840.0
6458.0	7203892.0
6459.0	7203167.0
6460.0	7164052.0
6461.0	7306829.0
6462.0	7127227.0
6463.0	7391848.0
6464.0	6859596.0
6465.0	6831268.0
6466.0	6670851.0
6467.0	6520780.0
6468.0	6523170.0
6469.0	6268293.0
6470.0	6577441.0
6471.0	6409829.0
6472.0	6686070.0
6473.0	6426401.0
6474.0	6614698.0
6475.0	6837057.0
6476.0	6878766.0
6477.0	7200839.0
6478.0	6989083.0
6479.0	7358436.0
6480.0	7113022.0
6481.0	7203624.0
6482.0	6971983.0
6483.0	7018844.0
6484.0	7129223.0
6485.0	6759694.0
6486.0	6859229.0
6487.0	6513447.0
6488.0	6563017.0
6489.0	6175002.0
6490.0	6313333.0
6491.0	6285265.0
6492.0	6238034.0
6493.0	6604741.0
6494.0	6467049.0
6495.0	6905662.0
6496.0	6769999.0
6497.0	7109853.0
6498.0	7070926.0
6499.0	7090097.0
6500.0	7290922.0
6501.0	6994169.0
6502.0	7213025.0
6503.0	6912790.0
6504.0	7130182.0
6505.0	6793906.0
6506.0	6681988.0
6507.0	6496621.0
6508.0	6318513.0
6509.0	6472215.0
6510.0	6052350.0
6511.0	6396297.0
6512.0	6305120.0
6513.0	6645945.0
6514.0	6554043.0
6515.0	6796999.0
6516.0	7047687.0
6517.0	7001131.0
6518.0	7411688.0
6519.0	7124901.0
6520.0	7418007.0
6521.0	7240082.0
6522.0	7310267.0
6523.0	7291959.0
6524.0	7234513.0
6525.0	7313785.0
6526.0	6865073.0
6527.0	6817304.0
6528.0	6476898.0
6529.0	6597279.0
6530.0	6449645.0
6531.0	6598464.0
6532.0	6781440.0
6533.0	6669637.0
6534.0	7007469.0
6535.0	6958910.0
6536.0	7314435.0
6537.0	7313995.0
6538.0	7340694.0
6539.0	7273259.0
6540.0	7241629.0
6541.0	7520645.0
6542.0	7354475.0
6543.0	7549224.0
6544.0	7162544.0
6545.0	7248180.0
6546.0	7047097.0
6547.0	6979251.0
6548.0	6866676.0
6549.0	6612253.0
6550.0	6786884.0
6551.0	6405216.0
6552.0	6823944.0
6553.0	6815216.0
6554.0	7152458.0
6555.0	7253618.0
6556.0	7271682.0
6557.0	7530327.0
6558.0	7333799.0
6559.0	7742878.0
6560.0	7591249.0
6561.0	7791439.0
6562.0	7513607.0
6563.0	7468238.0
6564.0	7367104.0
6565.0	7068024.0
6566.0	7225306.0
6567.0	6760022.0
6568.0	6776733.0
6569.0	6570996.0
6570.0	6596503.0
6571.0	6654341.0
6572.0	6548876.0
6573.0	7046498.0
6574.0	6964966.0
6575.0	7249395.0
6576.0	7213121.0
6577.0	7510529.0
6578.0	7535693.0
6579.0	7556485.0
6580.0	7740568.0
6581.0	7515993.0
6582.0	7604741.0
6583.0	7396995.0
6584.0	7597317.0
6585.0	7189205.0
6586.0	7114303.0
6587.0	6959821.0
6588.0	6722196.0
6589.0	6928566.0
6590.0	6507016.0
6591.0	6827575.0
6592.0	6604589.0
6593.0	6874317.0
6594.0	6847168.0
6595.0	7004610.0
6596.0	7337805.0
6597.0	7270919.0
6598.0	7644644.0
6599.0	7390967.0
6600.0	7641560.0
6601.0	7446893.0
6602.0	7525491.0
6603.0	7392971.0
6604.0	7286444.0
6605.0	7356372.0
6606.0	6921190.0
6607.0	7057483.0
6608.0	6650501.0
6609.0	6724966.0
6610.0	6619229.0
6611.0	6593720.0
6612.0	6860315.0
6613.0	6695344.0
6614.0	7031354.0
6615.0	6935695.0
6616.0	7248345.0
6617.0	7293668.0
6618.0	7426442.0
6619.0	7535373.0
6620.0	7437766.0
6621.0	7727529.0
6622.0	7420858.0
6623.0	7609548.0
6624.0	7160027.0
6625.0	7182554.0
6626.0	7002242.0
6627.0	6742679.0
6628.0	6812583.0
6629.0	6639163.0
6630.0	6949909.0
6631.0	6668716.0
6632.0	6941867.0
6633.0	6985954.0
6634.0	7015203.0
6635.0	7050743.0
6636.0	7063409.0
6637.0	7428833.0
6638.0	7214879.0
6639.0	7722075.0
6640.0	7508213.0
6641.0	7759742.0
6642.0	7538440.0
6643.0	7423161.0
6644.0	7362244.0
6645.0	7092556.0
6646.0	7285970.0
6647.0	6863345.0
6648.0	7080459.0
6649.0	6681143.0
6650.0	6677228.0
6651.0	6637286.0
6652.0	6594601.0
6653.0	6941200.0
6654.0	6709586.0
6655.0	7156210.0
6656.0	6768579.0
6657.0	7160415.0
6658.0	7304171.0
6659.0	7462599.0
6660.0	7592610.0
6661.0	7625044.0
6662.0	7864249.0
6663.0	7552851.0
6664.0	7691012.0
6665.0	7233639.0
6666.0	7207202.0
6667.0	6941778.0
6668.0	6685870.0
6669.0	6697204.0
6670.0	6472456.0
6671.0	6711213.0
6672.0	6532702.0
6673.0	6861366.0
6674.0	6880041.0
6675.0	7057873.0
6676.0	7227545.0
6677.0	7189025.0
6678.0	7680772.0
6679.0	7341994.0
6680.0	7652240.0
6681.0	7538087.0
6682.0	7643065.0
6683.0	7496605.0
6684.0	7375564.0
6685.0	7270408.0
6686.0	6864844.0
6687.0	6979245.0
6688.0	6685532.0
6689.0	6865145.0
6690.0	6511046.0
6691.0	6652828.0
6692.0	6656592.0
6693.0	6635344.0
6694.0	7044461.0
6695.0	7027702.0
6696.0	7351988.0
6697.0	7236469.0
6698.0	7625894.0
6699.0	7642364.0
6700.0	7621176.0
6701.0	7752372.0
6702.0	7570641.0
6703.0	7806327.0
6704.0	7402557.0
6705.0	7474630.0
6706.0	7076733.0
6707.0	7038487.0
6708.0	6985087.0
6709.0	6798910.0
6710.0	6971382.0
6711.0	6568497.0
6712.0	6888910.0
6713.0	6740583.0
6714.0	7055466.0
6715.0	7145585.0
6716.0	7471723.0
6717.0	7583068.0
6718.0	7530504.0
6719.0	7862162.0
6720.0	7616171.0
6721.0	7838354.0
6722.0	7556116.0
6723.0	7625387.0
6724.0	7467229.0
6725.0	7241132.0
6726.0	7268352.0
6727.0	6838539.0
6728.0	7079314.0
6729.0	6877313.0
6730.0	7167891.0
6731.0	6959680.0
6732.0	6794256.0
6733.0	6821883.0
6734.0	6675049.0
6735.0	7185366.0
6736.0	7053689.0
6737.0	7501450.0
6738.0	7497963.0
6739.0	8010942.0
6740.0	7910479.0
6741.0	7791373.0
6742.0	8017944.0
6743.0	7678679.0
6744.0	7710126.0
6745.0	7312206.0
6746.0	7318683.0
6747.0	7021315.0
6748.0	7048971.0
6749.0	6942500.0
6750.0	6762626.0
6751.0	6932050.0
6752.0	6560981.0
6753.0	7044972.0
6754.0	6941939.0
6755.0	7268972.0
6756.0	7322202.0
6757.0	7193869.0
6758.0	7503861.0
6759.0	7386674.0
6760.0	7765089.0
6761.0	7567144.0
6762.0	7853022.0
6763.0	7655149.0
6764.0	7582589.0
6765.0	7368317.0
6766.0	7123759.0
6767.0	7235434.0
6768.0	6811515.0
6769.0	7028489.0
6770.0	6647791.0
6771.0	6728060.0
6772.0	6696616.0
6773.0	6769696.0
6774.0	7076957.0
6775.0	7015525.0
6776.0	7295536.0
6777.0	7174817.0
6778.0	7597099.0
6779.0	7339337.0
6780.0	7495122.0
6781.0	7604980.0
6782.0	7454407.0
6783.0	7553137.0
6784.0	7223529.0
6785.0	7432212.0
6786.0	7062109.0
6787.0	6974040.0
6788.0	6755344.0
6789.0	6550587.0
6790.0	6725365.0
6791.0	6508150.0
6792.0	6793360.0
6793.0	6679753.0
6794.0	6975165.0
6795.0	6903693.0
6796.0	7248879.0
6797.0	7406557.0
6798.0	7306461.0
6799.0	7507128.0
6800.0	7441082.0
6801.0	7773981.0
6802.0	7457586.0
6803.0	7642099.0
6804.0	7344920.0
6805.0	7230478.0
6806.0	7079005.0
6807.0	6789019.0
6808.0	6888251.0
6809.0	6295314.0
6810.0	6533454.0
6811.0	6661919.0
6812.0	6826143.0
6813.0	6782471.0
6814.0	6829780.0
6815.0	7082440.0
6816.0	6935576.0
6817.0	7455325.0
6818.0	7196242.0
6819.0	7363603.0
6820.0	7437718.0
6821.0	7573322.0
6822.0	7633383.0
6823.0	7398046.0
6824.0	7502958.0
6825.0	7119978.0
6826.0	7190749.0
6827.0	6783365.0
6828.0	6875858.0
6829.0	6712344.0
6830.0	6680253.0
6831.0	6756392.0
6832.0	6506394.0
6833.0	6830302.0
6834.0	6647255.0
6835.0	7078118.0
6836.0	7016470.0
6837.0	7357770.0
6838.0	7553296.0
6839.0	7449073.0
6840.0	7754892.0
6841.0	7364148.0
6842.0	7570848.0
6843.0	7339103.0
6844.0	7303408.0
6845.0	6868300.0
6846.0	6728139.0
6847.0	6531245.0
6848.0	6112065.0
6849.0	6139889.0
6850.0	5590607.0
6851.0	5681058.0
6852.0	5441012.0
6853.0	5639234.0
6854.0	5621250.0
6855.0	5799001.0
6856.0	6125524.0
6857.0	6025500.0
6858.0	6521325.0
6859.0	6327222.0
6860.0	6604292.0
6861.0	6607003.0
6862.0	6713452.0
6863.0	6807759.0
6864.0	6599354.0
6865.0	6724036.0
6866.0	6441270.0
6867.0	6453371.0
6868.0	5973927.0
6869.0	5890321.0
6870.0	5690012.0
6871.0	5577135.0
6872.0	5968084.0
6873.0	6213594.0
6874.0	6991180.0
6875.0	7183812.0
6876.0	7897826.0
6877.0	7933577.0
6878.0	8298679.0
6879.0	8653672.0
6880.0	8873605.0
6881.0	9437351.0
6882.0	9468927.0
6883.0	9693357.0
6884.0	9327767.0
6885.0	9238108.0
6886.0	8803618.0
6887.0	8582165.0
6888.0	8389605.0
6889.0	8093518.0
6890.0	8304611.0
6891.0	7937069.0
6892.0	8131226.0
6893.0	7945376.0
6894.0	8128630.0
6895.0	8098200.0
6896.0	7920522.0
6897.0	8039814.0
6898.0	7790820.0
6899.0	8114876.0
6900.0	7815515.0
6901.0	8042365.0
6902.0	7866261.0
6903.0	7728992.0
6904.0	7598064.0
6905.0	7219672.0
6906.0	7400699.0
6907.0	6914210.0
6908.0	7044580.0
6909.0	6781334.0
6910.0	6793070.0
6911.0	6894445.0
6912.0	6605850.0
6913.0	6822802.0
6914.0	6653162.0
6915.0	7274544.0
6916.0	7091142.0
6917.0	7329555.0
6918.0	7379401.0
6919.0	7420230.0
6920.0	7626076.0
6921.0	7536777.0
6922.0	7751758.0
6923.0	7394485.0
6924.0	7468945.0
6925.0	7103118.0
6926.0	7235112.0
6927.0	7055499.0
6928.0	6801343.0
6929.0	6874741.0
6930.0	6587681.0
6931.0	6801262.0
6932.0	6548134.0
6933.0	6805829.0
6934.0	6752364.0
6935.0	6819749.0
6936.0	7120947.0
6937.0	6953369.0
6938.0	7319419.0
6939.0	7224683.0
6940.0	7534951.0
6941.0	7368418.0
6942.0	7586986.0
6943.0	7562708.0
6944.0	7276633.0
6945.0	7369825.0
6946.0	6918235.0
6947.0	7057590.0
6948.0	6656572.0
6949.0	6811035.0
6950.0	6614123.0
6951.0	6537088.0
6952.0	6798981.0
6953.0	6562972.0
6954.0	6932847.0
6955.0	6723696.0
6956.0	7191754.0
6957.0	7041735.0
6958.0	7408854.0
6959.0	7626460.0
6960.0	7468672.0
6961.0	7534515.0
6962.0	7165631.0
6963.0	7388459.0
6964.0	6924328.0
6965.0	7074721.0
6966.0	7112756.0
6967.0	6951939.0
6968.0	6873552.0
6969.0	6517920.0
6970.0	6678181.0
6971.0	6491474.0
6972.0	6608975.0
6973.0	6407525.0
6974.0	6599648.0
6975.0	6834695.0
6976.0	6866055.0
6977.0	7266822.0
6978.0	6995769.0
6979.0	7368289.0
6980.0	7174912.0
6981.0	7443335.0
6982.0	7351222.0
6983.0	7409009.0
6984.0	7343481.0
6985.0	6968715.0
6986.0	7067500.0
6987.0	6685922.0
6988.0	6859646.0
6989.0	6580021.0
6990.0	6642698.0
6991.0	6540349.0
6992.0	6337229.0
6993.0	6564793.0
6994.0	6472119.0
6995.0	6863350.0
6996.0	6776145.0
6997.0	7223528.0
6998.0	7218764.0
6999.0	7310689.0
7000.0	7396473.0
7001.0	7182286.0
7002.0	7439673.0
7003.0	7099159.0
7004.0	7241865.0
7005.0	6949996.0
7006.0	7013259.0
7007.0	6733216.0
7008.0	6404608.0
7009.0	6396719.0
7010.0	6204256.0
7011.0	6512790.0
7012.0	6262333.0
7013.0	6683848.0
7014.0	6753897.0
7015.0	6879353.0
7016.0	7040773.0
7017.0	6927604.0
7018.0	7082895.0
7019.0	6859656.0
7020.0	7305297.0
7021.0	7151305.0
7022.0	7335360.0
7023.0	7252437.0
7024.0	7058628.0
7025.0	7109503.0
7026.0	6666309.0
7027.0	6878497.0
7028.0	6404594.0
7029.0	6526168.0
7030.0	6248414.0
7031.0	6389961.0
7032.0	6447490.0
7033.0	6318134.0
7034.0	6612401.0
7035.0	6531947.0
7036.0	7017540.0
7037.0	6815514.0
7038.0	7134396.0
7039.0	7110575.0
7040.0	7019819.0
7041.0	7288076.0
7042.0	7052233.0
7043.0	7331240.0
7044.0	6947714.0
7045.0	7023182.0
7046.0	6751905.0
7047.0	6739722.0
7048.0	6681098.0
7049.0	6379223.0
7050.0	6533777.0
7051.0	6282186.0
7052.0	6642762.0
7053.0	6426343.0
7054.0	6573100.0
7055.0	6587818.0
7056.0	6730632.0
7057.0	7118045.0
7058.0	7096900.0
7059.0	7348282.0
7060.0	7108759.0
7061.0	7490366.0
7062.0	7385722.0
7063.0	7453895.0
7064.0	7325299.0
7065.0	7051642.0
7066.0	7116538.0
7067.0	6725189.0
7068.0	6831284.0
7069.0	6489623.0
7070.0	6486194.0
7071.0	6507523.0
7072.0	6489358.0
7073.0	6773860.0
7074.0	6566712.0
7075.0	7109289.0
7076.0	6793103.0
7077.0	7213841.0
7078.0	7190232.0
7079.0	7367770.0
7080.0	7621769.0
7081.0	7529543.0
7082.0	7654094.0
7083.0	7480053.0
7084.0	7676449.0
7085.0	7275533.0
7086.0	7130085.0
7087.0	6835884.0
7088.0	6739268.0
7089.0	6786960.0
7090.0	6619316.0
7091.0	6912640.0
7092.0	6598688.0
7093.0	7097290.0
7094.0	6923747.0
7095.0	7004877.0
7096.0	7169572.0
7097.0	7235488.0
7098.0	7564726.0
7099.0	7402988.0
7100.0	7865537.0
7101.0	7682761.0
7102.0	7802748.0
7103.0	7704863.0
7104.0	7540811.0
7105.0	7554152.0
7106.0	7181925.0
7107.0	7253357.0
7108.0	6816958.0
7109.0	7042716.0
7110.0	6755950.0
7111.0	6657868.0
7112.0	6638513.0
7113.0	6694556.0
7114.0	7037491.0
7115.0	6859209.0
7116.0	7309084.0
7117.0	7276879.0
7118.0	7708881.0
7119.0	7683900.0
7120.0	7655676.0
7121.0	7883120.0
7122.0	7718545.0
7123.0	7876052.0
