0 8021693 7216259 7409895
1 8225194 7415070 7768122
2 8297639 7473137 7595859
3 8208053 7864669 7961674
4 8544798 7750334 7828517
5 7945631 7907425 8093681
6 8424056 7727710 8049244
7 8006647 7861417 8009768
8 8484058 7898006 8072059
9 8247554 7699211 7762347
10 8137280 7671861 7945785
11 8065638 7156351 7578080
12 7439512 6987839 7834515
13 7765462 6755164 7669140
14 7677764 7194131 7573621
15 8309181 7246663 7640810
16 7911473 7121832 7434359
17 8177900 7167840 7588193
18 8067212 6921906 7252108
19 7991447 7184442 7524253
20 8629940 7403915 7314346
21 8196001 7681880 7717250
22 8544547 7610369 7749175
23 8099862 7732818 7758952
24 8575874 7940078 7993267
25 8259514 7857709 7926000
26 8139014 7957548 8233467
27 8228376 7713802 8027901
28 7872747 7861132 8278736
29 8251914 7584208 7971189
30 7798624 7586105 7927079
31 8407117 7540576 7834880
32 8178228 7495724 7479588
33 8457900 7480309 7571386
34 8256915 7077315 7239125
35 8096236 7219844 7501678
36 8336636 6876990 7145093
37 7920928 7038910 7315936
38 8439110 6988946 7260251
39 7914375 7020616 7212427
40 8256460 6977466 7374665
41 8157796 7171709 7324724
42 8131505 7413740 7754436
43 8046289 7159928 7623447
44 7732995 7488302 7957597
45 8515996 7579888 7694826
46 8382124 7996356 7792466
47 8619329 7801206 7895019
48 8053353 7683867 7810767
49 8277802 7686477 7961632
50 8119950 7361836 7670752
51 7845453 7455752 7951683
52 8273656 7263372 7539742
53 7991756 7315669 7510241
54 8347176 7002794 7370228
55 7750761 6855459 7223427
56 8084489 6703947 7222354
57 7835014 6564507 6964689
58 8138725 6907201 7228546
59 8304674 6855113 6955617
60 8025086 7101855 7320951
61 8348365 6951690 7311909
62 7875363 7193403 7484279
63 8512058 7390332 7554745
64 8115414 7330327 7438528
65 8367316 7423028 7643115
66 8173691 7313233 7452471
67 8130265 7610583 7886992
68 8104072 7368202 7809260
69 7663609 7466902 7954861
70 8101490 7122378 7690345
71 7578420 7070877 7593229
72 7917891 6788883 7526840
73 7589783 6619055 7288918
74 7951729 6871108 7424772
75 8007064 6529362 7019585
76 7805993 6580214 7123582
77 8149567 6309364 6789515
78 7668131 6455664 6914996
79 8267493 6535625 6980144
80 7759726 6667212 7096293
81 8201449 6999804 7389192
82 8161276 7095383 7288907
83 8113487 7362724 7727708
84 7981191 6931485 7525174
85 7597169 7162984 7770890
86 8105864 7124135 7699713
87 7715086 7314768 7716760
88 8132921 7216396 7750043
89 7783192 7133132 7561171
90 7918232 7235144 7844925
91 8058635 7093884 7407525
92 7890417 7085758 7485284
93 8189717 6747953 7196355
94 7698760 6814624 7289163
95 8203106 6630276 7189811
96 7717023 6487519 6978973
97 7894334 6449896 7218202
98 7816881 6409916 6929762
99 8003090 6685806 7179319
100 8227462 6606944 6926312
101 7872402 6851686 7286868
102 8263112 6827097 7231939
103 7879476 7023489 7354554
104 8269946 7072978 7499275
105 7857396 7095484 7443365
106 7992472 7232398 7815946
107 7820303 7068498 7655256
108 7797450 7329001 7878384
109 8182918 7215297 7605950
110 7731305 7203508 7641673
111 8133754 6912642 7495724
112 7565848 6859148 7419768
113 8006211 6718693 7359136
114 7630578 6408852 7009132
115 7937814 6573175 7075728
116 8175928 6355829 6653709
117 7791582 6580688 7110914
118 8277210 6494386 6772618
119 7919495 6725993 6949796
120 8239162 6717983 7167260
121 7737379 6847939 7314612
122 7932408 7073713 7707846
123 7854683 7007974 7498600
124 7874091 7330735 7818913
125 8057083 7073492 7569635
126 7600876 7264633 7855529
127 8159939 7147349 7658538
128 7753404 7262971 7644327
129 8189781 7143849 7615815
130 7813569 6889367 7229922
131 7943869 6819545 7396533
132 8106955 6547268 6873659
133 8085913 6734319 7001037
134 8529014 6483682 6586859
135 8180649 6547826 6487154
136 8987096 6432326 6169292
137 8679553 6511171 5972434
138 9276044 6775013 6078775
139 9133674 6702006 5875567
140 9215685 7031324 6221759
141 9675392 7106625 5936561
142 9607744 7733015 6371245
143 10338177 8021049 6282121
144 9863551 8375702 6632372
145 10354974 8515794 6815522
146 10075609 8796007 6931545
147 10404786 9180405 7320045
148 10542504 9137284 6931661
149 10537531 9338190 7193521
150 10844263 9211805 6942966
151 10563988 9499288 7041237
152 11142833 9352212 6866958
153 10752192 9298374 6710132
154 10865006 8895332 6623283
155 10498115 8441356 6247652
156 10553017 8375408 6268872
157 10487281 7989058 5995693
158 9914973 7986637 6343819
159 10075604 7695388 6304839
160 9317580 7991928 6848117
161 9503179 8004283 7271524
162 8463359 7880492 7654281
163 8240571 7684147 8092612
164 7663823 7560979 8308970
165 7135137 7697468 8968776
166 7193582 7624953 9008888
167 6712316 7825628 9307454
168 6923489 7536801 9340365
169 6214358 7456225 9346194
170 6800029 7422429 9315692
171 6371768 7237841 9091428
172 6482821 7058661 9046428
173 6679533 6831285 8585572
174 6457987 6917756 8747732
175 6981917 6833173 8479190
176 6471799 6794711 8555958
177 6878966 6510973 8351303
178 6554239 6486624 8079013
179 7071207 6728118 8245098
180 6916245 6718424 8140865
181 6935290 7088228 8528942
182 7554630 7028470 8052371
183 7184665 7264715 8249473
184 7836661 7270306 8116270
185 7560122 7563022 8110124
186 8236573 7639364 8078120
187 7897854 7571195 7857400
188 7941909 7498456 8152112
189 7840121 7292174 7837010
190 7761030 7302832 7924406
191 8050856 7036012 7554415
192 7641839 7053877 7672633
193 8087719 6795094 7487199
194 7607859 6698782 7207864
195 8046733 6653984 7244167
196 7899339 6527314 6934592
197 7931902 6655995 7227670
198 8005108 6437606 6949607
199 7684510 6593864 7170365
200 8195614 6504965 7041033
201 7720384 6817842 7280843
202 8362900 7123857 7448013
203 8004552 7192826 7381080
204 8230242 7389367 7746713
205 8080208 7210402 7498056
206 7975971 7418581 7814835
207 8131538 7191969 7635792
208 7791380 7432892 7815130
209 8343775 7273991 7663352
210 7741187 7115978 7531326
211 7926197 6918249 7582721
212 7648632 6674841 7279921
213 7698125 6726017 7513423
214 7863059 6445532 7132891
215 7681597 6579429 7181108
216 8126904 6448450 6937059
217 7835791 6635152 6955568
218 8258509 6553278 7055042
219 7725467 6587288 7035046
220 8148099 6768976 7224891
221 8177125 6736629 6914150
222 8151332 7060277 7288253
223 8343129 6920082 7185681
224 7986022 7253879 7546415
225 8280584 7183016 7604604
226 7881405 7337076 7615294
227 8253855 7353535 7763306
228 7954059 7293069 7507907
229 8167936 7381389 7756832
230 8103675 7101849 7433298
231 7864731 7195590 7618153
232 8165318 6835954 7299675
233 7736028 6864311 7310584
234 8249538 6570251 7067794
235 7871069 6607738 6878370
236 8139658 6524446 7060152
237 7922877 6426577 6774757
238 8059679 6680252 7022042
239 8272331 6475321 6770727
240 8065310 6745690 6877764
241 8607234 6842147 6955619
242 8171233 7235149 7220954
243 8565526 7059274 7229530
244 8085643 7177739 7276100
245 8368534 7496013 7628806
246 8247347 7351513 7552838
247 8090717 7645301 7909467
248 8321596 7317919 7649459
249 7994292 7484637 7715282
250 8439974 7244467 7494326
251 8010471 7180128 7362075
252 8317628 7028333 7326974
253 8149130 6858510 6909524
254 8274044 6988905 7110601
255 8210708 6673607 6997948
256 7950283 6812046 7083279
257 8542613 6673999 6750703
258 8074933 6715787 6806564
259 8412170 6624132 6889582
260 8086745 6870770 6961933
261 8314513 6995390 7263906
262 8365561 7065299 7044400
263 8178587 7221255 7361598
264 8447824 7166757 7249647
265 8033457 7420809 7563050
266 8528109 7352556 7499849
267 8236363 7553945 7478512
268 8535104 7414221 7492132
269 8194619 7311156 7368269
270 8349580 7390578 7529883
271 8393763 7095456 7150901
272 7943355 6954290 7224344
273 8175501 6640248 7078690
274 7945764 6929555 7071311
275 8604717 6773653 6864135
276 8289254 6806613 6651309
277 8559793 6770061 6787831
278 8385003 6497062 6487086
279 8239481 6697356 6835694
280 8643186 6688688 6565603
281 8312866 7004727 6934301
282 8531368 6975493 7107229
283 8148791 7271509 7259693
284 8720097 7415809 7358367
285 8498274 7557555 7238788
286 8678537 7801093 7671924
287 8463798 7468293 7469360
288 8261834 7640999 7670490
289 8693873 7427329 7340803
290 8329417 7569748 7396031
291 8690396 7330342 7307677
292 8214422 7204809 7119270
293 8693156 7260215 7132812
294 8483172 6988234 6835677
295 8414472 6974211 6950193
296 8730589 6723130 6419059
297 8508767 6895534 6591530
298 8846827 6701386 6490026
299 8477850 6894490 6569758
300 8931762 6914188 6682304
301 8637035 7084611 6680507
302 8896988 7408178 7104950
303 8959673 7394580 6769229
304 8709332 7629328 7310315
305 8877379 7530555 7247842
306 8544796 7812199 7412820
307 9038991 7683545 7380210
308 8556558 7788954 7363657
309 8853057 7777385 7607264
310 8497810 7638810 7372538
311 8686282 7743997 7468213
312 8869052 7326642 6932791
313 8495622 7389110 7090420
314 8891313 7083479 6860872
315 8423242 7104661 6772713
316 8974020 7007172 6727536
317 8622218 6973046 6556983
318 8814469 7049132 6806642
319 8864390 6997594 6483294
320 8780070 7307629 6893385
321 9014505 7179653 6744759
322 8649704 7594307 7157619
323 9202294 7580495 7048807
324 8614254 7639408 7228348
325 9124458 7788467 7334269
326 9117722 8004714 7172467
327 9182073 8093140 7428416
328 9083923 7847763 7247918
329 8796133 7998944 7538873
330 9142212 7758423 7234374
331 8820791 7815914 7085484
332 9221575 7523518 6993218
333 8685325 7316072 6770751
334 9142800 7382092 6824284
335 8891303 7116991 6547241
336 8832400 7232877 6804071
337 8978312 6969038 6511465
338 8670308 7253621 6829658
339 9028533 7138165 6757600
340 8683658 7346741 6842870
341 9207393 7510887 7013112
342 9039518 7780881 6948071
343 9272039 7965278 7293354
344 9240746 7879371 7040562
345 9107973 8153572 7366646
346 9331944 8004811 7325357
347 8817311 8256609 7584747
348 9097531 7996242 7593016
349 8562965 7947355 7535170
350 9188586 8182993 7633184
351 8914214 7931974 7257344
352 8876958 7855364 7407812
353 8930080 7472426 6986312
354 8579079 7403746 7149896
355 8938275 7191840 6832308
356 8485538 7307947 6943168
357 9051104 7275422 6824301
358 8576356 7166854 6791284
359 8891988 7380812 7028373
360 8903137 7342704 6778271
361 8892000 7647517 7143270
362 9115567 7619523 7091824
363 8438309 7719154 7485353
364 9143644 7773398 7352700
365 8424484 7893226 7662396
366 8769401 7921897 7788407
367 8546066 7929554 7640631
368 8830038 8105229 7781551
369 9004508 7948904 7445760
370 8543018 7984022 7711362
371 8889680 7686564 7414689
372 8254020 7533653 7391015
373 8613814 7215125 7230982
374 8334707 7206703 6997687
375 8930494 7299176 6933843
376 8657659 7094685 6731412
377 8238873 7046211 7241950
378 8034721 6660008 7114711
379 7982897 6984016 7225969
380 8696542 7031860 6977179
381 8222782 7240677 7149469
382 8654382 7269349 7336911
383 8240992 7208452 7216175
384 8496712 7471088 7549798
385 8590492 7545215 7400363
386 8353659 7790684 7834277
387 8336599 7556984 7794433
388 8002607 7752906 7916705
389 8486269 7652488 7886614
390 7971937 7493019 7709824
391 8293305 7387815 7722555
392 8005590 7107683 7440240
393 7935454 7098453 7604398
394 8086309 6698978 7118601
395 7641667 6818346 7403040
396 8060227 6557768 7127208
397 7674443 6622273 7074367
398 8193844 6558309 7016188
399 8024109 6690054 6832998
400 8339147 6858848 7029252
401 8299389 6843020 6962194
402 8162518 7264160 7489783
403 8395482 7177706 7391222
404 7968127 7422745 7598912
405 8346109 7267911 7676421
406 7845099 7416352 7781594
407 8160387 7493882 7942153
408 7926036 7346655 7649352
409 8142297 7498062 7794027
410 8325540 7180090 7359607
411 7959766 7345167 7659412
412 8068063 6941707 7519871
413 7605584 6844937 7342718
414 8347920 6682834 7043430
415 8027097 6564304 6804270
416 7859699 6616726 7317452
417 7841707 6441531 6986406
418 7810810 6595314 7201197
419 7965315 6443656 7031113
420 7593765 6691198 7280101
421 8055741 6548875 7190276
422 7759619 6852472 7244130
423 8314068 7112819 7485930
424 7950095 7110855 7450791
425 8025747 7435015 7880782
426 8124825 7268538 7584587
427 7855608 7456086 7925883
428 8167745 7310318 7675424
429 7945739 7585320 7829227
430 8401009 7320085 7692394
431 7807198 7171413 7502188
432 7987453 7023635 7672375
433 7841357 6825593 7253663
434 8089550 6911823 7285489
435 8115103 6567394 6928129
436 7715609 6572562 7122942
437 8162152 6391700 6882503
438 7806721 6448176 6830763
439 8364256 6514816 6842400
440 7918950 6621322 6911092
441 8093482 6873623 7384769
442 8020492 6835143 7179189
443 8013867 7100924 7535081
444 8229756 7096413 7399863
445 7828838 7269458 7760146
446 8046410 7069828 7744174
447 7636919 7257846 7744478
448 8205791 7394123 7920577
449 7770352 7313534 7777258
450 7758033 7315113 8003700
451 8029111 7213576 7642513
452 7985991 7380343 7654963
453 8234960 6915784 7295558
454 7665601 6836968 7377616
455 8189871 6620694 7139717
456 7880496 6617665 6940104
457 8000421 6458712 7128967
458 7722390 6342698 6946158
459 7942765 6738930 7234252
460 8167677 6643975 7021223
461 7761871 6900520 7302399
462 8342432 6857539 7191549
463 7824828 6988696 7321620
464 8293170 6981353 7461024
465 7855542 7175487 7501459
466 8054358 7342404 7875397
467 8073789 7255225 7573784
468 8105654 7501127 7825545
469 8174312 7249669 7716950
470 7666605 7349943 7871239
471 8127130 7089217 7602625
472 7837267 7043001 7364143
473 8310311 6998719 7341644
474 7924921 6711414 7041231
475 7891047 6706172 7351643
476 8029064 6577752 6929575
477 8033941 6786774 7037524
478 8139140 6381071 6912330
479 7668223 6530575 7017829
480 8070374 6444078 7102590
481 7646548 6514127 7046604
482 8192310 6906551 7409572
483 8059193 6981147 7271388
484 8022212 7238715 7671284
485 8159269 7117274 7453930
486 7773974 7394086 7885478
487 8124469 7246471 7777093
488 7669903 7390303 7847591
489 8339971 7378867 7710680
490 7933104 7285336 7548809
491 8151555 7359331 7808447
492 7856670 6991005 7491723
493 7724339 6926839 7571593
494 7887626 6453421 7138066
495 7404143 6526483 7316831
496 8052015 6383047 7041776
497 7798989 6617550 6972602
498 8327006 6704706 7114983
499 8037626 6695897 6873506
500 8171387 6882914 7171910
501 8110643 6687681 7004264
502 8007288 7113235 7361310
503 8439735 7150865 7293849
504 7960340 7284676 7447752
505 8442279 7293170 7563210
506 7910649 7342641 7625838
507 8152309 7514271 7938827
508 8126458 7427917 7689441
509 7963675 7516991 7930530
510 8072948 7140207 7663965
511 7753265 7210133 7710842
512 8224423 6950987 7397281
513 7705122 6946072 7376086
514 8130525 6729318 7262485
515 7730222 6539412 7052884
516 7963444 6561332 7159864
517 7963171 6312860 6751151
518 7852783 6633575 7095669
519 8220246 6465405 6819936
520 7747072 6617526 7064011
521 8084053 6691223 7286033
522 7712760 6956415 7330009
523 8226842 7091638 7520058
524 7879622 7133057 7482861
525 8026255 7403215 7807239
526 8140353 7283536 7576542
527 8007906 7693505 7940599
528 8274556 7431346 7788955
529 7726675 7513372 7917529
530 8184234 7293985 7749755
531 7935785 7206046 7482067
532 8229540 7275087 7642441
533 8178380 7022132 7159738
534 8076074 6966227 7290335
535 8130488 6602581 6990357
536 7718070 6592964 7033231
537 8217562 6325884 6768334
538 7660798 6377053 6909942
539 8012195 6332341 6988245
540 7828155 6544499 6903180
541 8197268 6933465 7249613
542 8304167 6944911 7039513
543 8095751 7402952 7659528
544 8291469 7195140 7520373
545 7869911 7420891 7700233
546 8317611 7341155 7796081
547 7728958 7458164 7842587
548 8171892 7475178 7961804
549 7925140 7411023 7732141
550 8035036 7583017 7996440
551 8264052 7326398 7543251
552 7804992 7212789 7656270
553 8194012 6895310 7376718
554 7772168 7120747 7467944
555 8331050 6984362 7398046
556 7805440 6806423 7175460
557 8314948 7004657 7251275
558 8219826 6863566 6990981
559 8059070 6927982 7253194
560 8222512 6698829 6977769
561 7895990 7023840 7371232
562 8336748 6945575 7333624
563 7832661 7214507 7530244
564 8448798 7541524 7776826
565 8113306 7625891 7775083
566 8466331 7886743 7988533
567 8315871 7531282 7606490
568 8045241 7723057 7990461
569 8610609 7672587 7681213
570 8109531 7837681 7881365
571 8411504 7611954 7956349
572 7885116 7509104 7752416
573 8228223 7272200 7694744
574 8012963 7089626 7352244
575 8019307 7143676 7604971
576 8092501 6865942 7200623
577 8106369 7103028 7291998
578 8596472 6910325 6975299
579 8154533 7003357 7018543
580 8568085 7008427 7146586
581 8146539 7093983 7116896
582 8382336 7228058 7446141
583 8270955 7287891 7330287
584 8181478 7556224 7763169
585 8340312 7507463 7695571
586 8036177 7842670 8052485
587 8559221 7738789 7791924
588 8062021 7742895 7821303
589 8534356 7706774 7851800
590 8221762 7615961 7626335
591 8313968 7615975 7827970
592 7988262 7196736 7550920
593 7790396 7194762 7771863
594 8012676 6794411 7393884
595 7609478 6793011 7367794
596 8225042 6687402 7057158
597 7937028 6821404 6982283
598 8449013 6867608 7083763
599 8212170 6809223 6844726
600 8471399 7145854 7145110
601 8523247 6899755 6877121
602 8282934 7257950 7256383
603 8827167 7329151 7155696
604 8262288 7547129 7470085
605 8577067 7494455 7597281
606 7998220 7507297 7662112
607 8399586 7616538 7823367
608 8128552 7423215 7601705
609 8024721 7563880 7944269
610 8228312 7296014 7641427
611 7665325 7264208 7842391
612 8005825 6921662 7570039
613 7601808 6962198 7527798
614 8131358 6838862 7397871
615 7862996 6733024 7002470
616 8184670 6749420 7088773
617 8034946 6516713 6824389
618 7825368 6576659 7072951
619 8153952 6355536 6749164
620 7721523 6542397 6953935
621 8243319 6467666 6907810
622 7861442 6815802 7086100
623 8350699 7006580 7322996
624 7889915 6926404 7244637
625 8031654 7100178 7669756
626 7887288 6970551 7479882
627 7730352 7240466 7818136
628 8113255 7031140 7565365
629 7553467 7084961 7656993
630 7987921 6886563 7625292
631 7370062 6744350 7516613
632 7679974 6645735 7612247
633 7688082 6600019 7146239
634 7794825 6655303 7283599
635 8041226 6343504 6796276
636 7745038 6535058 7020672
637 8198824 6275815 6766831
638 7677341 6406363 6866156
639 8102390 6302724 6912781
640 7732364 6462018 6897590
641 7967998 6556523 7167214
642 7960427 6491536 6848941
643 7871508 6946080 7467474
644 8188738 6870121 7211612
645 7821401 7039001 7463304
646 8218573 6962439 7447489
647 7782102 7172803 7479896
648 8082160 7039377 7654167
649 7710096 6986282 7498085
650 8019679 7142019 7617492
651 8072131 6814154 7268633
652 7724009 6967742 7520939
653 8056508 6702517 7246935
654 7549539 6663005 7255667
655 7975836 6414769 7109407
656 7642811 6253626 6761726
657 7863342 6176308 6915555
658 7893527 6199453 6620086
659 7815349 6397496 6965570
660 8039023 6307251 6754846
661 7625965 6485329 7092725
662 8052441 6431277 7048858
663 7711422 6673581 7117918
664 8170141 6773967 7279999
665 7694660 6775045 7342269
666 7939740 7034738 7679231
667 7994277 6936767 7397179
668 7697893 7120476 7763448
669 8073380 7013688 7516610
670 7738951 7199318 7730144
671 8183896 7060662 7577017
672 7646692 6952860 7436238
673 7900510 6649920 7454481
674 7715217 6525121 7096930
675 7909666 6601161 7130337
676 7949961 6040683 6535831
677 7707307 6171421 6799809
678 7997025 6033691 6696245
679 7436870 6120863 6884880
680 7883040 6096995 6982924
681 7612496 6337731 6928992
682 8086070 6541187 7092200
683 7928444 6695766 7096889
684 7662694 6958555 7820766
685 7897228 6805076 7451710
686 7804360 7086675 7555726
687 8185817 7068633 7552916
688 7757993 7153990 7544784
689 8139570 7113432 7682177
690 7793843 6904364 7365585
691 7924966 6845393 7466517
692 7873938 6439547 6974792
693 7952677 6592387 6996365
694 8482795 6419690 6487252
695 8210195 6544068 6499485
696 8784023 6318436 6158872
697 8510284 6235961 5876770
698 8977086 6369133 5994122
699 8950716 6316026 5615059
700 9328977 6833535 5933659
701 9727194 6937004 5694673
702 9505603 7280289 6057493
703 9864545 7357545 6093441
704 9698043 7955020 6411160
705 10113904 8101707 6674989
706 9744445 8264769 6665252
707 10470857 8891320 6975458
708 10735946 9086384 6723588
709 10659171 9323620 7060105
710 10863783 9170393 6843810
711 10518912 9434950 7156154
712 10964270 9268813 6954828
713 10444845 9101780 6781746
714 10844678 8690667 6431040
715 10627463 8347590 6008856
716 10477593 8143635 6096524
717 10426351 7623046 5630643
718 10203080 7815748 5920687
719 10268062 7647682 5990695
720 9374809 7744803 6517953
721 9157408 7412115 6999429
722 8200272 7401066 7349723
723 8323606 7609438 7988394
724 7677817 7459111 8144907
725 7365919 7655007 8768910
726 7377754 7490306 8693456
727 6866124 7739302 9165729
728 6943673 7431301 9228417
729 6240764 7465013 9441877
730 6480330 7368213 9562668
731 6263671 7226542 9217405
732 6495533 7058135 9136117
733 6371830 6597646 8603286
734 6143532 6660282 8865091
735 6451462 6352840 8507670
736 6156294 6441876 8437957
737 6762137 6346899 8296002
738 6488877 6428458 8141711
739 6887635 6344182 8116376
740 6674655 6252291 7801273
741 6970618 6537629 8125120
742 7271166 6610280 7742918
743 7390670 7036480 7918439
744 7799278 6930681 7778185
745 7280876 7172568 8031613
746 7815501 7185394 8038132
747 7447169 7286104 8009891
748 7950650 7499089 8144612
749 7828584 7375658 7833176
750 7933859 7345469 7883316
751 8090799 7076604 7452701
752 7624667 7101250 7667081
753 7871126 6778285 7564077
754 7505965 6734433 7303556
755 8090821 6548018 7127931
756 7756244 6381609 6785593
757 7966110 6331468 6923095
758 7745167 6132677 6742848
759 7545178 6316489 7097975
760 7927337 6245436 6867899
761 7526234 6464260 7079028
762 8044275 6423232 7097454
763 7559139 6686559 7275585
764 7909283 6839419 7540052
765 7736131 6878658 7412967
766 7864617 7115089 7728432
767 8088201 7005363 7362274
768 7852290 7224765 7681123
769 8096769 6986684 7454670
770 7539853 7105945 7695313
771 8005656 6988710 7694106
772 7607567 6912265 7499749
773 7925867 6831259 7500442
774 7902146 6564092 7004343
775 7732594 6456759 7204951
776 7546744 5973114 6879486
777 7429107 6232109 7066938
778 7977595 6147076 6820348
779 7669069 6231819 6707997
780 7939481 6126578 6945216
781 7500912 6217210 6867189
782 7921642 6506772 7164825
783 7974355 6610589 6993085
784 7949065 7014946 7421825
785 8216837 7009558 7276461
786 7715292 7122630 7688914
787 8212744 7130184 7602650
788 7867744 7260133 7485292
789 8189140 7133987 7656603
790 7746769 6919560 7466207
791 7902753 7073679 7629386
792 8004817 6832577 7259582
793 7678054 6863206 7483516
794 7885043 6357375 7122778
795 7274160 6304493 7210368
796 8033290 6311760 6967767
797 7758604 6361088 6784404
798 8018224 6177805 6846364
799 7846506 6162431 6550933
800 8165361 6548614 6897248
801 8129044 6377615 6754334
802 7969631 6753212 7017402
803 8456680 6747519 6952317
804 7988257 6970175 7201926
805 8457212 7030119 7296286
806 7996550 7127113 7342641
807 8139258 7191293 7652156
808 7926285 7125934 7530351
809 8007277 7413885 7863155
810 8097370 7064155 7516041
811 7681765 7094315 7619852
812 8093499 6739447 7372803
813 7563137 6647239 7203966
814 8062289 6464913 7063438
815 7575813 6214498 6809569
816 7874094 6258877 6959810
817 7899764 6050027 6558784
818 7927441 6321470 6764132
819 8170086 6120146 6538141
820 7873284 6455813 6780245
821 8313773 6393820 6782986
822 7805365 6599545 6964115
823 8290414 6882193 7213052
824 8045533 6878442 6988540
825 8267106 7143249 7371373
826 8319221 7005525 7136795
827 8013425 7351555 7603974
828 8257438 7081529 7450577
829 7883746 7281491 7557367
830 8243434 7190559 7638729
831 7910137 7205130 7485769
832 8283748 7070642 7359825
833 8073569 6782318 7034594
834 8121972 6877209 7226367
835 8308905 6584467 6751758
836 7957825 6579890 6891524
837 8173447 6204461 6703220
838 7794796 6235745 6582015
839 8371302 6286284 6605940
840 8005765 6325392 6546422
841 8180093 6559150 6957546
842 8035240 6526196 6815422
843 8150539 7007640 7224156
844 8556043 6956974 6934672
845 8181784 7204441 7259971
846 8676722 7218873 7230938
847 8300367 7404901 7227154
848 8709770 7515157 7390178
849 8432017 7441102 7264903
850 8530625 7442504 7446547
851 8415528 7130119 7119488
852 7942067 7087446 7438053
853 8207435 6745084 7077988
854 7941537 6834993 7098027
855 8283657 6617135 6982712
856 7956605 6563552 6716498
857 8696832 6774615 6756504
858 8454533 6720075 6536642
859 8381011 6751505 6765486
860 8522890 6481203 6430434
861 8224778 6750904 6738115
862 8668200 6681638 6680011
863 8265643 7000746 6882841
864 8838909 7117062 6979553
865 8448404 7186862 6976077
866 8672775 7509287 7386818
867 8773300 7412371 7037009
868 8439359 7578817 7473561
869 8593824 7377525 7351024
870 8256237 7550035 7494420
871 8846567 7421615 7237440
872 8242216 7352021 7219545
873 8525830 7153472 7272177
874 8193936 6952417 6963813
875 8449064 6925203 6942925
876 8533780 6672642 6545709
877 8556278 6999819 6681877
878 8822374 6665638 6444217
879 8351654 6787291 6636762
880 8709292 6607991 6592691
881 8320326 6700684 6522928
882 8973158 7082965 6702750
883 8665975 6993798 6639657
884 8655444 7449538 7204879
885 9117063 7671459 7047604
886 8810434 7942671 7351727
887 9220079 7754050 7144469
888 8667822 7874761 7362303
889 9109484 7843248 7396273
890 8526915 7750840 7364582
891 8843850 7627999 7358865
892 8754546 7501894 7007035
893 8773632 7649336 7191517
894 8919987 7181710 6815313
895 8671679 7396603 6943231
896 9067889 7097079 6739123
897 8456129 6992589 6704039
898 8976008 7023878 6686222
899 8702375 6962793 6497811
900 8845182 7102966 6807155
901 8765693 6925976 6619145
902 8656055 7255585 6891774
903 9196659 7246031 6733364
904 8615984 7552206 7071814
905 9231775 7820542 7305059
906 8846807 7977592 7336587
907 9170358 8105648 7517059
908 8878922 7955446 7381245
909 8883227 8063476 7601811
910 8989716 7762150 7316626
911 8570314 7774626 7520288
912 8981798 7577863 7300427
913 8404388 7558718 7295593
914 8922569 7367526 7138992
915 8545725 7224540 6845548
916 8754201 7217806 7075050
917 8576838 6968682 6780306
918 8605138 7174210 6981855
919 8912293 7036918 6669649
920 8612688 7178236 6840035
921 8985657 7155827 6845543
922 8750201 7424153 6839530
923 9087319 7571166 7205567
924 8494490 7596497 7329506
925 8599557 7777593 7705875
926 8524156 7711342 7589470
927 8524440 7920608 7684285
928 9070428 7855361 7482013
929 8421507 7853044 7616406
930 8699580 7592791 7594577
931 8183028 7514991 7524134
932 8510368 7546588 7665223
933 8051196 7166655 7381458
934 8202877 7267116 7473400
935 8367549 6818949 6945242
936 8029878 6788768 7037037
937 8409621 6599237 6849203
938 7709353 6513045 6985344
939 8151480 6420606 6951619
940 7827307 6499486 6829239
941 8285357 6815652 7153796
942 8271576 6893735 6994771
943 8205070 7171907 7323749
944 8434244 7091170 7230989
945 8007588 7355424 7565777
946 8508297 7341485 7530278
947 7848563 7435715 7757313
948 8283792 7446312 7835564
949 8197062 7519893 7545310
950 8042387 7459904 7966603
951 7901347 7166582 7688184
952 7938065 7407350 7774135
953 8170238 6918023 7359154
954 7545152 6753221 7394446
955 8088827 6592999 7227735
956 7801218 6689560 7011423
957 8206689 6667544 7053801
958 8034708 6321887 6559469
959 8005531 6464177 6956978
960 8055749 6311683 6781630
961 7544090 6633369 7345952
962 7840410 6509789 7383946
963 7468724 6732232 7394343
964 7996589 6810083 7507547
965 7859379 7078565 7395396
966 8067150 7293356 7762290
967 7934353 7073309 7504995
968 7756172 7312324 7987757
969 7750311 6925017 7768771
970 7241693 7027441 7882161
971 8018096 6995319 7715598
972 7661133 7083915 7556693
973 8021909 6960503 7598210
974 7724667 6619784 7126257
975 7743497 6495473 7275850
976 7577080 6197792 7119059
977 7533695 6320226 7106541
978 8207202 6284151 6655709
979 7919791 6503002 6766880
980 8146058 6360236 6939089
981 7653436 6410210 6891668
982 8084397 6718578 7208624
983 7911877 6609491 7009508
984 7949275 6895718 7314608
985 8101281 6864916 7299817
986 7665825 7104910 7667653
987 8186780 7072949 7604292
988 7547291 7292927 7851820
989 7872588 7218080 7953006
990 7531739 7035129 7703045
991 7728761 7104357 7874356
992 7718579 6886744 7499858
993 7721522 7030864 7629567
994 7874804 6550227 7320523
995 7441732 6615757 7365014
996 8079791 6506860 7143330
997 7668096 6459369 6975525
998 8035191 6429060 7071256
999 7741690 6252135 6764679
1000 7766387 6368396 7006853
1001 7956310 6246914 6835289
1002 7655498 6503509 7073530
1003 8117241 6488056 7107086
1004 7513360 6761388 7393176
1005 8075190 6853388 7400753
1006 7765568 6943378 7408713
1007 7999066 7096122 7649013
1008 7926616 7129247 7534007
1009 7769624 7334750 7941698
1010 7922459 7087753 7754108
1011 7466996 7072622 7814791
1012 7958242 6875421 7594290
1013 7321531 6779158 7587363
1014 7669213 6667179 7701591
1015 7414836 6433874 7255471
1016 7541097 6413502 7373463
1017 7803248 6215829 6854349
1018 7651991 6406868 7068495
1019 8107991 6195594 6733738
1020 7522847 6304105 6860023
1021 8109891 6318928 6900897
1022 7657272 6527790 7053597
1023 7921006 6585306 7238058
1024 7991587 6793953 7115851
1025 7961883 7080995 7536524
1026 7951582 6791327 7340449
1027 7738609 7171195 7710419
1028 8220057 7146040 7594503
1029 7643003 7183548 7696216
1030 8081084 7104551 7720079
1031 7717196 7015618 7538749
1032 7866310 7041741 7747781
1033 7544751 6680217 7461672
1034 7613047 6726226 7467060
1035 8050603 6407365 7000041
1036 7692900 6613093 7126982
1037 8209004 6433717 6931129
1038 7686425 6459913 6889441
1039 8010820 6349859 6986299
1040 7693464 6229408 6836099
1041 7888808 6437739 7091214
1042 7895641 6423781 6982754
1043 7517700 6660251 7451040
1044 7927070 6682198 7322351
1045 7822951 7091658 7475858
1046 8229861 7081139 7532881
1047 7701985 7191450 7666279
1048 7962416 7222586 7858814
1049 7806893 7179829 7699311
1050 7784892 7301767 7934861
1051 8008094 6969424 7457603
1052 7597373 7025832 7703813
1053 8059998 6820198 7351951
1054 7489543 6752718 7386916
1055 8055041 6622900 7206837
1056 7822889 6489055 6921349
1057 7861559 6463491 7140491
1058 7775514 6217593 6809449
1059 7553160 6230040 7081889
1060 7622008 5993304 6929881
1061 7433483 6342423 7046203
1062 8226553 6535314 6952602
1063 7812105 6812874 7133338
1064 8132710 6874064 7381638
1065 7749138 6732594 7250783
1066 7869040 7003094 7704485
1067 7910122 6986602 7565174
1068 7795439 7294153 7816035
1069 8097926 7075075 7560774
1070 7576575 7204051 7744010
1071 8016387 6974919 7649112
1072 7625316 7002312 7521899
1073 7846664 6898966 7664801
1074 7737836 6736193 7280497
1075 7992319 6839275 7263217
1076 8100942 6496253 6819682
1077 7693737 6439130 6957048
1078 7957529 6057434 6755484
1079 7577574 6371497 6913180
1080 8277867 6442751 6848126
1081 7751703 6383225 6855663
1082 8031497 6601548 7138507
1083 8069919 6716647 6993887
1084 7879517 6953886 7483749
1085 8118175 6923518 7295086
1086 7896390 7271461 7616514
1087 8281910 7143272 7517769
1088 7604625 7154594 7709209
1089 7981701 7087530 7797630
1090 7652864 7098234 7644289
1091 7986106 7263164 7817111
1092 7900304 6928148 7439441
1093 7704298 6967562 7664266
1094 7968357 6540290 7169101
1095 7457222 6555337 7193836
1096 8124518 6462666 7046432
1097 7687750 6433459 6923668
1098 8053152 6372044 6963933
1099 7754001 6160300 6702246
1100 7729110 6382631 7112878
1101 7813681 6204944 6867041
1102 7631054 6613403 7134893
1103 8147274 6493811 7079638
1104 7627405 6926914 7391906
1105 8184873 7021172 7508869
1106 7827307 7080130 7427695
1107 8046529 7250478 7818792
1108 7885533 7135173 7588435
1109 7877069 7379565 7882910
1110 8028369 7121489 7644228
1111 7653394 7231740 7818302
1112 8064587 7130065 7699620
1113 7733079 7139557 7551870
1114 8082892 6826294 7466725
1115 7897272 6612764 6958601
1116 8039995 6655264 7084865
1117 8137456 6484335 6791815
1118 7630682 6609135 7283495
1119 7778935 6207035 7084107
1120 7406117 6314844 7035044
1121 8016916 6401409 7086527
1122 7607530 6536226 7115345
1123 8235198 6908311 7272826
1124 8231467 6946703 7107134
1125 8047291 7274975 7674916
1126 8181185 7103375 7449071
1127 7905464 7426939 7803340
1128 8392824 7363700 7667257
1129 7892296 7545650 7798928
1130 8219995 7482566 7963446
1131 7837897 7339438 7736221
1132 7998664 7396422 7908867
1133 7961000 7143610 7600720
1134 7940813 7332466 7787755
1135 8213134 6913746 7318568
1136 7778284 6939624 7327735
1137 8364590 6942960 7301462
1138 7873204 6959634 7249463
1139 7990364 6689450 7372194
1140 7723744 6511668 7092375
1141 8111063 6986862 7346935
1142 8270081 6836552 7093071
1143 7891395 7049019 7423541
1144 8546264 7230921 7355339
1145 7887181 7414083 7768359
1146 8325752 7501568 7839460
1147 7919548 7574004 7903670
1148 8045347 7521160 8047882
1149 8028694 7522574 7835637
1150 7957096 7765962 8236562
1151 8164911 7440749 7785216
1152 7865673 7594346 7943700
1153 8253650 7368655 7796363
1154 7951592 7459595 7642927
1155 8471310 7238238 7422730
1156 7999730 6967379 7207936
1157 8239873 6901685 7241230
1158 8206055 6679834 6880065
1159 8309146 6905878 6977130
1160 8471310 6665986 6801642
1161 8003352 6896186 7065057
1162 8469981 6895103 7133807
1163 7925896 6994576 7282387
1164 8478089 7329922 7479193
1165 8248369 7476497 7440904
1166 8329598 7701517 7828472
1167 8309745 7539436 7633706
1168 8101059 7769876 7960848
1169 8455461 7567721 7775084
1170 8042949 7671594 7815926
1171 8473116 7469896 7688847
1172 7938586 7356846 7579710
1173 8161809 7233082 7734478
1174 8046971 7030554 7298360
1175 7948589 6988182 7443622
1176 8021990 6491689 6966661
1177 7951418 6753068 7074048
1178 8387411 6603572 6848286
1179 7932822 6685839 6896719
1180 8302267 6452463 6860816
1181 7836985 6405222 6781449
1182 8093002 6650326 7127509
1183 8260085 6750529 6885122
1184 8165770 7122992 7341177
1185 8261047 7003276 7305843
1186 7835992 7307698 7662509
1187 8301357 7207041 7636277
1188 7821831 7481148 7757545
1189 8235037 7405686 7876262
1190 7910122 7272438 7617093
1191 8007422 7348421 7855274
1192 8075458 7039087 7386239
1193 7666208 6991047 7672238
1194 7793241 6580054 7424081
1195 7447636 6624075 7377529
1196 7958747 6359899 7092126
1197 7365291 6157508 6916063
1198 7852500 6230179 6989640
1199 8050835 6405972 6627918
1200 8094222 6576314 6937670
1201 8120041 6293770 6682493
1202 7761647 6491534 6994403
1203 8079192 6403256 6992319
1204 7666087 6677862 7193153
1205 7961521 6766484 7425508
1206 7745623 6859322 7385911
1207 8138680 7188056 7629848
1208 8030107 7126180 7494456
1209 7899512 7249214 7758976
1210 8100154 7059967 7508894
1211 7600976 7139603 7737947
1212 7928412 6879558 7615564
1213 7444103 6805973 7480754
1214 7734212 6514537 7426622
1215 7563438 6415803 7079026
1216 8008442 6712971 7205253
1217 7810075 6149909 6792794
1218 7425240 6181939 7035902
1219 7721033 5820684 6779802
1220 7408840 6102879 6833537
1221 7995986 6144302 6848243
1222 7665953 6395751 6864581
1223 8111152 6589058 7110176
1224 7775009 6519363 7035224
1225 7914726 6943776 7467408
1226 7934395 6842235 7340852
1227 7591198 7052052 7716037
1228 8130872 7041007 7571637
1229 7809697 7370332 7701233
1230 8271748 7308690 7723282
1231 7837130 7117882 7513209
1232 7964521 7016726 7669095
1233 7721558 6643991 7284028
1234 7632387 6712192 7445939
1235 8039836 6619095 7096421
1236 7679568 6654110 7163609
1237 8155548 6234440 6740604
1238 7441281 6126298 6805078
1239 7765524 6055253 6994998
1240 7665114 6148553 6708113
1241 7987572 6492648 6988119
1242 8084283 6359513 6735560
1243 7840554 6722716 7178742
1244 8288351 6676931 7103457
1245 7429289 6795510 7461064
1246 8009131 6718870 7455361
1247 7540841 6889266 7477339
1248 8046476 7091479 7718655
1249 7901034 7058402 7473551
1250 7921083 7173222 7680051
1251 7953520 6896699 7433716
1252 7617716 6955958 7594400
1253 7962415 6674846 7373958
1254 7294940 6578950 7391134
1255 7734591 6424527 7370726
1256 7493642 6307549 6976401
1257 7899425 6367218 7015833
1258 7721748 6084745 6733497
1259 7865737 6381341 6895479
1260 8278665 6375454 6621702
1261 7993562 6583245 6780730
1262 8520604 6572902 6681387
1263 8057571 6731484 6800765
1264 8743341 6901585 6824988
1265 8443492 6833491 6616788
1266 8719469 7008498 6852781
1267 8704648 6908218 6558416
1268 8733441 7153202 6753162
1269 9116717 7067059 6553739
1270 8825064 7412976 6759269
1271 9407470 7315711 6636145
1272 9080323 7398084 6453269
1273 9758167 7567257 6471671
1274 9615180 7466670 6024622
1275 9888695 7674518 6253239
1276 10062899 7483598 5864804
1277 10039005 7838838 6038548
1278 10527679 7670469 5776111
1279 10093888 7752583 5801642
1280 10700985 7883443 5832253
1281 10519820 8309530 5930828
1282 11063067 8691136 6302014
1283 10647144 8755440 6382889
1284 10843748 9116956 6683670
1285 11156818 8831945 6144488
1286 10753346 9007117 6481143
1287 11009454 8800293 6404589
1288 10331730 8652440 6473086
1289 10737445 8555711 6539526
1290 9924749 8551499 6795075
1291 9799580 8530659 7386096
1292 9031087 8190293 7475344
1293 8517838 8116951 8015996
1294 8132264 7482089 7878369
1295 7470173 7371823 8163932
1296 7592916 6990580 8067922
1297 6971336 6948706 8111013
1298 7126726 6768372 8294450
1299 6705847 6800333 8328019
1300 6602172 6725099 8700189
1301 6392268 6457770 8534421
1302 6189798 6810431 8925072
1303 6623729 6723307 8664224
1304 6283474 6950584 8867064
1305 6873834 6870870 8791324
1306 6375944 7111394 8851462
1307 6857422 7185345 9013146
1308 6663984 7166784 8824713
1309 6816417 7487786 9147381
1310 6866857 7265333 8791791
1311 6736888 7465281 8989910
1312 7212439 7235150 8613207
1313 6898119 7328615 8570686
1314 7499567 7048657 8226810
1315 7243303 6912348 7778617
1316 7547001 6728930 7816888
1317 7470649 6476916 7259434
1318 7510383 6509261 7430674
1319 7678381 6201046 7025721
1320 7410192 6384473 7201007
1321 8022787 6263371 6888315
1322 7679535 6515155 6934644
1323 8003566 6510900 7224420
1324 7582097 6751114 7342707
1325 7823146 7042746 7773490
1326 7875385 6970449 7482372
1327 7780561 7198048 7824733
1328 8111030 7143667 7600539
1329 7689045 7370037 7907228
1330 8094548 7245065 7849257
1331 7616833 7284728 7796966
1332 8035194 7128872 7778476
1333 7539716 6809223 7559328
1334 7555365 6750813 7657583
1335 7673710 6468556 7186539
1336 7674630 6621253 7311845
1337 7895646 6238923 6950568
1338 7475928 6283701 6943453
1339 8081536 6196619 6833950
1340 7702454 6269086 6717390
1341 7962603 6276933 6983779
1342 7626794 6232856 6851376
1343 7835428 6527086 7169745
1344 7889969 6455882 7123887
1345 7654362 6888652 7497449
1346 8179410 7025078 7448069
1347 8014566 7412929 7518467
1348 8560589 7448766 7593583
1349 7787679 7318844 7679566
1350 7877226 7218370 7939984
1351 7945154 7181942 7580793
1352 7949302 7404863 7815554
1353 8235152 7023006 7271938
1354 7926838 7060964 7321349
1355 8381290 6781199 7024654
1356 7755557 6588728 6953929
1357 8075649 6390986 6964872
1358 7608990 6154058 6765854
1359 7965613 6458391 6916512
1360 8095808 6243232 6568223
1361 7848549 6494467 6883162
1362 8255739 6386888 6743966
1363 7648268 6610373 7103059
1364 7981093 6573239 7243885
1365 7817986 6801518 7128732
1366 8209153 7007143 7407050
1367 7922531 6942617 7336827
1368 7949138 7245322 7739514
1369 8167414 7171058 7509276
1370 7941458 7386048 7664312
1371 8290831 7098363 7492234
1372 7789999 7168843 7537163
1373 8277546 7099626 7551560
1374 7977943 7025006 7244661
1375 8253735 7008083 7345660
1376 8101415 6605248 6871941
1377 7992885 6658325 6985559
1378 8257437 6387678 6726349
1379 7869055 6447508 6751135
1380 8455459 6399830 6625523
1381 8061688 6536917 6702621
1382 8382128 6647209 6952881
1383 7956207 6664568 6920963
1384 8186974 6872498 7200254
1385 8291935 6831641 6938148
1386 8060185 7158049 7450642
1387 8396768 7192664 7419311
1388 7844467 7374576 7693778
1389 8210827 7277025 7733375
1390 7913634 7330254 7631462
1391 8299246 7378781 7690730
1392 8070436 7167337 7372586
1393 8183699 7194459 7520402
1394 8385417 6901029 7037311
1395 7961580 6874511 7159511
1396 8428069 6591026 6830446
1397 7975882 6692671 6774750
1398 8433465 6532144 6784362
1399 8031727 6412585 6587806
1400 8073776 6463257 6944052
1401 8124745 6355136 6615835
1402 7967933 6574312 6950346
1403 8298229 6441999 6759108
1404 7947679 6772111 7041283
1405 8466069 6936270 7151061
1406 8168639 7232059 7164562
1407 8539478 7305765 7451211
1408 8117282 7208213 7335417
1409 8438818 7496026 7541491
1410 8559595 7386707 7252262
1411 8178704 7441315 7554948
1412 8146381 6991455 7435581
1413 7880143 7150700 7394504
1414 8475840 6960183 7204006
1415 8323041 7099703 6930636
1416 8552859 7045198 7109584
1417 8251639 6630075 6728423
1418 8208430 6661882 6827390
1419 8551279 6480575 6430765
1420 8261019 6746646 6632825
1421 8779163 6739021 6627472
1422 8311276 6980201 6793721
1423 8936955 7017146 6780978
1424 8392025 6962519 6726510
1425 8625820 7166202 7043670
1426 8601281 7020097 6847045
1427 8424930 7467329 7355430
1428 8713142 7303590 7179799
1429 8256329 7587517 7518238
1430 8966677 7614148 7332011
1431 8756516 7816713 7188213
1432 9124633 7723004 7280414
1433 8640228 7367276 6968732
1434 8649120 7312902 7196603
1435 8606779 6969672 6882222
1436 8258016 7012974 6996813
1437 8781562 6754688 6592450
1438 8420835 6807690 6546770
1439 8992093 6773343 6484978
1440 8481283 6673921 6315206
1441 8645432 6652086 6623860
1442 8704675 6706101 6339870
1443 8730302 7119289 6788116
1444 9061113 7129010 6590400
1445 8834576 7541942 6946276
1446 9237680 7545067 6991633
1447 8654957 7650197 7143751
1448 9030854 7709810 7377944
1449 8618844 7699102 7239736
1450 8923069 7819544 7394124
1451 8920247 7626987 7175983
1452 8728929 7836451 7368279
1453 9038034 7598532 7130000
1454 8612973 7650860 7167278
1455 9197090 7447687 6906751
1456 8730706 7302051 6705313
1457 8929041 7065551 6772297
1458 8799814 6866196 6315852
1459 8985134 7209142 6606517
1460 9039379 6877282 6358225
1461 8688847 7049792 6625010
1462 8924412 6896780 6598362
1463 8769233 7302953 6619207
1464 9341732 7401786 6760261
1465 8966585 7586595 6779916
1466 9326126 7851048 7129533
1467 9280833 7742671 6780416
1468 9143546 8116422 7285170
1469 9386229 8065173 7263570
1470 8722960 8145004 7632024
1471 9062598 7978125 7577605
1472 8695955 8049649 7454775
1473 9097014 7857207 7439815
1474 8938857 7715485 7063008
1475 8951587 7654887 7116807
1476 9032710 7242194 6660363
1477 8886339 7532973 6924866
1478 9195706 7124830 6532336
1479 8717052 7196724 6633399
1480 9254302 7105852 6528603
1481 8848682 7094780 6388661
1482 9223702 7220739 6585846
1483 8998633 7204499 6503493
1484 9037640 7528662 6887453
1485 9287595 7499550 6714720
1486 8968157 7920112 7173351
1487 9216922 7830146 7307517
1488 8596999 7936235 7482280
1489 9139952 8106829 7616600
1490 8865778 8092881 7472843
1491 8994934 8203280 7754942
1492 8970147 7995390 7408105
1493 8796342 8130132 7664191
1494 9024952 7712701 7298528
1495 8435421 7541775 7263877
1496 9024462 7456662 7128481
1497 8647779 7434727 6912620
1498 8912782 7308429 6985606
1499 8706427 7050300 6664325
1500 8736893 7130502 6894176
1501 8861475 6925653 6583702
1502 8584946 7281228 6899662
1503 8924655 7173120 6946459
1504 8319843 7299272 7132470
1505 8854633 7460693 7312787
1506 8618561 7680546 7294082
1507 8674288 7925695 7780773
1508 8609910 7774825 7580650
1509 8388120 7930274 7925832
1510 8609973 7647403 7654752
1511 7880932 7629866 7971854
1512 8283121 7371789 7758834
1513 8270957 7547576 7474941
1514 8624067 7476057 7546581
1515 8161779 7041015 7148498
1516 8130829 7091748 7375658
1517 8235035 6738448 7008343
1518 7951384 6782020 7060588
1519 8383136 6571503 6798562
1520 8008945 6792094 6924986
1521 8278718 6634383 7066334
1522 7865397 6536973 6855137
1523 8231172 6817682 7140082
1524 8353742 6960900 6987571
1525 8045675 7241118 7551399
1526 8289077 7204734 7408600
1527 8231336 7739510 7681503
1528 8756363 7688069 7586727
1529 8291158 7710619 7576918
1530 8610560 7746667 7851322
1531 8267713 7694483 7648720
1532 8339693 7647592 7790437
1533 8264616 7297986 7502861
1534 7849888 7308427 7670762
1535 8106014 6880197 7385582
1536 7809053 6998569 7375362
1537 8442909 6942428 7147477
1538 7978567 6693735 6899370
1539 8293728 6607499 6978350
1540 8016283 6431930 6754239
1541 7969890 6598303 7047734
1542 8165322 6510756 6881460
1543 7852184 6889185 7275646
1544 8294487 6833649 7183017
1545 7910290 7098088 7393462
1546 8391563 7236671 7509938
1547 8024680 7316810 7488862
1548 8251136 7447125 7814033
1549 8029671 7278846 7623214
1550 7913420 7558466 8027634
1551 8224979 7343302 7678593
1552 7789143 7411310 7773709
1553 8269908 7123480 7531262
1554 7763014 7031939 7388895
1555 8226027 6934636 7368698
1556 7828529 6736104 7071471
1557 7977254 6695200 7286974
1558 7953657 6433226 6919261
1559 7814330 6605985 7073084
1560 8291455 6442788 6769195
1561 7909797 6520501 6846773
1562 8409470 6556427 6861206
1563 7824517 6674168 7018106
1564 8219062 6873093 7276139
1565 8077083 6874559 7129069
1566 8028910 7031262 7512901
1567 8097470 7031948 7401752
1568 7795942 7390523 7850123
1569 8056223 7207064 7799562
1570 7459533 7279952 7971592
1571 8132963 7342372 7865491
1572 8016048 7475908 7653019
1573 8291681 7399556 7652803
1574 8113404 7075191 7291578
1575 7948527 7050914 7452784
1576 8031539 6572340 7079091
1577 7599008 6630611 7233340
1578 8170818 6632593 7097400
1579 7606562 6558962 7048225
1580 7915469 6408916 7161325
1581 7726369 6436152 6865087
1582 7985991 6658352 7188297
1583 8181784 6704970 6869064
1584 8125082 6980235 7211569
1585 8311926 6851501 7100381
1586 8122509 7345627 7406779
1587 8513448 7326877 7476220
1588 8086784 7535161 7606377
1589 8396127 7517136 7748664
1590 8083923 7428827 7513263
1591 8046119 7377437 7799963
1592 8047715 7213140 7615040
1593 7825142 7279603 7763703
1594 8057816 7015705 7622830
1595 7772476 7129947 7500861
1596 8377621 6921087 7159855
1597 7962413 6754497 6909654
1598 8269091 6731675 7095946
1599 7976465 6521232 6865256
1600 7903044 6612377 7154991
1601 8051108 6435018 6882670
1602 7892502 6728140 7071043
1603 8410419 6703509 6928394
1604 7852350 6903336 7189175
1605 8294043 6959290 7350127
1606 7993529 7138597 7314212
1607 8322545 7424804 7663804
1608 8168707 7231234 7464178
1609 8073336 7556626 7883202
1610 8347578 7404941 7626860
1611 7750038 7449014 7969183
1612 8204891 7180337 7625701
1613 7636606 7244260 7750125
1614 8186989 7237102 7727242
1615 7851201 6920664 7313196
1616 7972085 6958780 7559377
1617 7815797 6635024 7247578
1618 7887145 6834521 7274175
1619 8097671 6364661 6878079
1620 7593417 6406883 7005343
1621 8130136 6372784 6936539
1622 7578291 6484902 7059692
1623 8071002 6656751 7283026
1624 7908557 6739500 7094825
1625 8087872 7075244 7493466
1626 8218439 7008854 7238664
1627 7970595 7327411 7668958
1628 8147136 7200563 7716800
1629 7797314 7632595 7999278
1630 8474237 7595768 7850427
1631 7964839 7604026 7840408
1632 8231120 7534266 7926087
1633 8057334 7337550 7594492
1634 8100106 7394847 7731487
1635 8314365 6989116 7225383
1636 7779766 7024208 7485188
1637 8286629 6767542 7184813
1638 7790373 6810658 7167646
1639 8308280 6657484 7082863
1640 7842756 6650491 6964487
1641 8243392 6708510 7062115
1642 8028691 6521105 6880130
1643 8040224 6876617 7255454
1644 8283182 6785773 7032807
1645 7955000 7163224 7463939
1646 8363143 7109021 7438282
1647 7992901 7389276 7577375
1648 8238005 7491544 7952319
1649 7760987 7390678 7887804
1650 8030298 7510226 8014425
1651 8194186 7448006 7642942
1652 8023078 7578273 7888540
1653 8217019 7317202 7703709
1654 7817727 7330804 7693232
1655 8192075 7020826 7534111
1656 7713784 6876565 7326275
1657 7949125 6735129 7385001
1658 7949128 6671964 7007921
1659 8163993 6891650 7196356
1660 8220756 6658413 6849972
1661 8066685 6805243 7004579
1662 8424361 6619029 6863983
1663 7946407 6950482 7100208
1664 8281688 6872489 7257644
1665 7977732 6991288 7252432
1666 8324192 7299625 7552845
1667 8390598 7362335 7368007
1668 8206238 7592098 7759271
1669 8320161 7431561 7698928
1670 7761577 7616669 8042501
1671 8313786 7428586 7799424
1672 7866704 7471466 7755225
1673 8170445 7330516 7798474
1674 7816179 7054620 7530093
1675 7920249 7061442 7591234
1676 8197890 6900660 7160619
1677 7921794 6988033 7360219
1678 8242444 6652788 7025472
1679 7811159 6687665 7097790
1680 8292008 6613848 7059297
1681 7957645 6622217 6819430
1682 8348858 6800415 7070728
1683 8147551 6850378 6984322
1684 7977367 7021574 7446436
1685 8159994 6876325 7242823
1686 7752280 7085150 7618296
1687 8295178 7349371 7726634
1688 8061469 7845044 7880270
1689 8412891 7707420 7918861
1690 7996323 7528442 7727975
1691 8164443 7705500 8114167
1692 8225012 7581961 7709090
1693 8120373 7648539 7819829
1694 8435539 7306549 7474110
1695 7905772 7272478 7524187
1696 8294878 7037468 7449976
1697 7782109 6947767 7269152
1698 8232066 6805349 7223439
1699 8028631 6752841 6896389
1700 8132143 6892001 7228391
1701 8139393 6651343 6971651
1702 7894690 6847063 7235264
1703 8199624 6753281 7139918
1704 7769897 6974324 7339045
1705 8254695 7095425 7458270
1706 7938244 7313526 7530591
1707 8305777 7494128 7774082
1708 8101852 7445767 7667283
1709 8268395 7882936 8003778
1710 8411806 7630906 7732477
1711 8082412 7782196 7896359
1712 8635892 7672412 7721014
1713 8147868 7729884 7715502
1714 8449212 7572258 7798583
1715 8069960 7296689 7449257
1716 8278534 7377001 7697247
1717 8129802 7143553 7352681
1718 8024461 7172052 7490881
1719 8381806 6934871 7136098
1720 8004305 7095792 7208523
1721 8451083 6932164 7145011
1722 8126517 7029462 7058979
1723 8631519 7146431 7174250
1724 8209601 7217065 7258642
1725 8317935 7520630 7630462
1726 8379995 7392815 7531813
1727 7995208 7705498 7966464
1728 8515854 7653497 7855023
1729 8180684 8069793 8023062
1730 8502858 7960291 8137982
1731 8024558 7860392 8020818
1732 8453869 8033901 8175906
1733 8382445 7856989 7817132
1734 8243241 7862124 8044926
1735 8436891 7370201 7508091
1736 8054745 7372318 7472606
1737 8664852 7173371 7226873
1738 8286735 7231531 7136097
1739 8630170 7112511 7224266
1740 8195692 7008309 7042711
1741 8300809 6970219 7154683
1742 8380521 6845404 6868271
1743 8395119 7253936 7215620
1744 8884006 7266535 7048179
1745 8274124 7548244 7458016
1746 8645176 7522803 7637051
1747 8167800 7748631 7732202
1748 8777577 7998039 7852205
1749 8757590 8021502 7573080
1750 8652497 8025107 7831989
1751 8617760 7714166 7642250
1752 8226971 7888735 7842644
1753 8599547 7630884 7723597
1754 8177601 7569972 7530468
1755 8420733 7272319 7519615
1756 8259579 7267022 7217325
1757 8175799 7154325 7398014
1758 8224052 6835834 6914395
1759 8238941 6948628 7042229
1760 8341446 6698271 6893754
1761 7958419 7011641 7166995
1762 8606444 7055117 7108090
1763 8100561 7138602 7173318
1764 8383771 7091124 7348610
1765 8093149 7108638 7280110
1766 7975216 7264083 7704079
1767 7953830 7039724 7513804
1768 7922431 7536267 7843657
1769 8599002 7582805 7656893
1770 8032151 7764138 7869395
1771 8358046 7588522 7947848
1772 7956376 7559567 7763843
1773 8250438 7521480 7811099
1774 8170723 7152142 7279985
1775 8110311 7164475 7427061
1776 8317143 6826157 7076137
1777 7800553 6925664 7330317
1778 8196094 6648317 7107178
1779 7766332 6606621 6980887
1780 8440171 6760415 6986904
1781 8171250 6715782 6783359
1782 7898670 6654767 7249240
1783 7884597 6418101 6972795
1784 7985931 6865394 7187226
1785 8505598 7016218 7092399
1786 7898745 7217939 7479168
1787 8199411 7142884 7634983
1788 7764775 7316362 7727753
1789 8296940 7585059 7892849
1790 8164862 7471168 7646673
1791 8016263 7490419 7942707
1792 8140333 7170332 7587725
1793 7821447 7305212 7748697
1794 8203615 7081381 7547208
1795 7865521 7126094 7403852
1796 8287006 6832078 7292442
1797 7759078 6626299 7084897
1798 7973095 6656341 7175904
1799 8052171 6432375 6763521
1800 7977819 6504221 6913096
1801 8222637 6275775 6674917
1802 7755793 6487673 6936668
1803 8335286 6595389 6936472
1804 7882940 6732881 7013691
1805 8409115 6916087 7133470
1806 8154024 6917886 7070978
1807 8038017 7174828 7572525
1808 8203382 7099518 7373756
1809 7737037 7318488 7828738
1810 8059387 7182038 7724730
1811 7745155 7421412 7816996
1812 8364967 7395097 7761473
1813 7892760 7266406 7560183
1814 8015421 7150939 7659614
1815 7897045 6793025 7256802
1816 7830083 6955224 7475449
1817 8047102 6607522 7063399
1818 7731301 6569512 7030343
1819 8021336 6262201 6896684
1820 7479404 6225287 6881352
1821 8096646 6243662 6787560
1822 7867256 6258876 6639060
1823 8101399 6684856 7122058
1824 8073507 6545639 6981879
1825 7832641 6941236 7459379
1826 8259891 6946792 7315932
1827 7852603 7201129 7482560
1828 8304127 7180178 7578551
1829 7847745 7227693 7546788
1830 8308618 7435871 7708926
1831 8175091 7360488 7554744
1832 8174971 7559333 7811935
1833 8289812 7226039 7458199
1834 7737800 7171002 7663576
1835 8059983 6734630 7390395
1836 7595918 6670780 7261305
1837 7979680 6380593 7070312
1838 7800087 6371155 6813364
1839 8195272 6638346 6982719
1840 8137912 6398952 6629652
1841 7934978 6481543 6876743
1842 8558279 6474239 6511695
1843 8448598 6808303 6531340
1844 8990035 6732288 6484296
1845 8684831 6866508 6353762
1846 9162776 7062909 6493136
1847 9157326 7221489 6300442
1848 9394912 7583432 6634364
1849 9661673 7524712 6352353
1850 9634204 7875361 6501069
1851 10074044 7766751 6332100
1852 9565166 7997799 6563891
1853 10182170 8039484 6565615
1854 10056715 8146347 6278908
1855 10382964 8239433 6365259
1856 10431058 8167285 6040839
1857 10665584 8401278 6146541
1858 11033963 8191018 5679828
1859 10854907 8417592 5781202
1860 11326938 8428601 5771113
1861 10746164 8565305 5978493
1862 11107075 8568322 6209504
1863 10853550 8742908 6087291
1864 10986795 8765557 6245337
1865 11242125 8710015 5895070
1866 10867287 8892194 6343817
1867 10865968 8506297 6264627
1868 9936734 8573125 6824886
1869 10170465 8484192 7006512
1870 9612694 8712023 7232303
1871 9555246 8612660 7731527
1872 8775634 8385193 7940379
1873 8311978 8277414 8418875
1874 7958932 7665661 8322694
1875 7131098 7419016 8538136
1876 7166068 6968412 8525761
1877 6428273 6963412 8697930
1878 6707012 6789100 8824789
1879 6018579 6501339 8657608
1880 6371520 6762001 8965667
1881 6644376 6816460 8535162
1882 6496780 6792690 8673142
1883 6750605 6614636 8504162
1884 6167228 6737715 8769568
1885 6838847 6945464 8766201
1886 6566240 7300858 8906192
1887 7025108 7426314 9149465
1888 6839842 7488429 8945986
1889 7098023 7742208 9156447
1890 7088148 7624298 8927465
1891 6941148 7732055 9041971
1892 7506594 7477830 8626822
1893 7199057 7558585 8501771
1894 7706685 7365477 8332410
1895 7242608 7148776 8013207
1896 7722284 7109302 7985542
1897 7710710 6911885 7535711
1898 7646665 6966572 7705409
1899 7882528 6591491 7182590
1900 7512940 6537128 7188847
1901 8311086 6658558 7049718
1902 7898285 6847583 7092459
1903 8206248 6787061 7277029
1904 7804996 6737214 7151486
1905 8052390 7033725 7481691
1906 8154895 7038332 7257634
1907 7842676 7311461 7780676
1908 8201908 7318204 7739165
1909 7847815 7637061 7991677
1910 8373798 7495177 7842401
1911 7819301 7419685 7750686
1912 8203410 7410969 7858843
1913 8042872 7174329 7422679
1914 8110624 7217967 7579471
1915 7986527 6838655 7332934
1916 7825303 6924021 7389480
1917 8286072 6674925 7013170
1918 7880193 6702748 6945766
1919 8327134 6610843 6950598
1920 7792709 6468375 6857031
1921 7888745 6598387 7244515
1922 7764751 6395678 6938468
1923 7809934 6618786 7198699
1924 8212068 6592298 6966063
1925 8010242 7084942 7278702
1926 8433177 7044368 7348139
1927 7828745 7189197 7487714
1928 8318009 7440106 7768084
1929 7970520 7482573 7813619
1930 8149513 7617236 7906797
1931 8398347 7463338 7512427
1932 8037647 7582786 7826960
1933 8245702 7262288 7636620
1934 7698426 7245692 7654630
1935 8188698 6967963 7485457
1936 7838451 6810240 7079697
1937 8188166 6699720 7076690
1938 8061344 6541500 6781590
1939 8095499 6698061 7003256
1940 8196020 6467301 6753623
1941 7979071 6615158 6825068
1942 8364778 6504535 6825539
1943 7849766 6700600 7000306
1944 8400678 6776505 7041300
1945 8033145 6870563 7047256
1946 8241408 7069592 7430537
1947 8262079 7129774 7291052
1948 8124791 7435986 7620283
1949 8291286 7225391 7513885
1950 7882159 7458913 7716411
1951 8448343 7369359 7661484
1952 7999453 7452949 7627315
1953 8477382 7579091 7702424
1954 8376145 7447272 7366322
1955 8371627 7425231 7567858
1956 8351632 6948119 7128298
1957 7980538 7010430 7245478
1958 8371777 6711781 6968111
1959 7949203 6690589 6906133
1960 8408449 6670231 6960144
1961 8131276 6639424 6762490
1962 8308154 6695351 6964651
1963 8233756 6591225 6755138
1964 8064594 6943631 7209640
1965 8395484 6867574 7007847
1966 8172983 7222696 7279165
1967 8534461 7165049 7340054
1968 7864057 7219003 7513640
1969 8259697 7357126 7705864
1970 8253679 7437659 7483391
1971 8228173 7516395 7743416
1972 8461063 7387645 7452122
1973 8129991 7633546 7715493
1974 8420206 7293676 7517422
1975 7759899 6968540 7431551
1976 8458549 7078635 7254394
1977 8207758 6907610 6913950
1978 8153061 6779674 7211327
1979 8331439 6590070 6611666
1980 8191467 6736590 6947978
1981 8532278 6565798 6617149
1982 8400584 7022371 6833627
1983 8703303 6925659 6880089
1984 8245269 7049390 6919135
1985 8786602 7153900 7012610
1986 8505600 7244852 6972357
1987 8469264 7463222 7484500
1988 8409505 7290315 7352123
1989 8297999 7813979 7749273
1990 8809572 7810944 7620506
1991 8335562 7886910 7676033
1992 8696805 7639963 7597558
1993 8188558 7471044 7420628
1994 8503431 7428669 7534824
1995 8479965 7320891 7100032
1996 8588453 7370768 7187855
1997 8660145 7130951 6951968
1998 8159274 7096837 7160700
1999 8595274 6793300 6814083
2000 8152384 6866343 6815872
2001 8600619 6902850 6987372
2002 8429281 6863720 6699702
2003 8708413 7030296 6879244
2004 8549019 6778224 6657820
2005 8411266 7176079 7093702
2006 8990164 7274967 6879841
2007 8444131 7513054 7232851
2008 9040472 7640443 7303369
2009 8548889 7732571 7362556
2010 8842618 7768051 7567710
2011 8669885 7744015 7346990
2012 8863893 7958486 7580941
2013 8826964 7652779 7287203
2014 8455082 7754274 7570697
2015 8954886 7556443 7220735
2016 8482402 7566286 7152811
2017 9030191 7319268 6972386
2018 8629883 7226216 6735620
2019 8943632 7199852 6873321
2020 8851887 6997399 6441166
2021 9083968 7191016 6489585
2022 9228603 6913947 6248168
2023 8684220 7142351 6722598
2024 8892250 7057337 6821843
2025 8423346 7387931 7082852
2026 9096509 7615632 7203746
2027 8754511 7688711 7108367
2028 9028600 7963162 7501577
2029 8977248 7916518 7342387
2030 8779148 8062304 7616221
2031 9087749 7891864 7438225
2032 8775563 8151464 7571752
2033 9111693 7891159 7466148
2034 8634466 7748341 7258340
2035 9108076 7766232 7335243
2036 8813958 7519428 7000937
2037 8858772 7550168 7108418
2038 8926100 7221661 6747114
2039 8692342 7402131 6932876
2040 9096454 7062445 6723705
2041 8760881 7241385 6537923
2042 9422063 7175611 6462195
2043 8867116 7277123 6647011
2044 9119312 7549737 7044776
2045 9084911 7628086 6870550
2046 8984955 7925770 7367343
2047 9155543 7831162 7168429
2048 8952271 8104578 7404508
2049 9437101 8147893 7369619
2050 8986668 8309964 7485707
2051 9286909 8184463 7581709
2052 8865594 8056930 7392239
2053 9045834 8163541 7713420
2054 8778624 7878678 7417291
2055 8740996 8045463 7619376
2056 9234267 7727294 7099246
2057 8836236 7733393 7067514
2058 9235755 7389431 6908841
2059 8691577 7312130 6745949
2060 8991346 7282507 6914041
2061 8786495 7222998 6703802
2062 9027560 7504644 7005806
2063 9238389 7417069 6676007
2064 8923906 7712729 7079945
2065 9241503 7602963 6972981
2066 8725032 7832662 7237294
2067 9214424 7871728 7328896
2068 8749721 7915055 7373418
2069 9096701 8258148 7720794
2070 9125178 8272488 7512072
2071 9052810 8480986 7804243
2072 9277026 8154646 7461491
2073 8822753 8279816 7702603
2074 9061883 7985651 7650538
2075 8419217 7873847 7566917
2076 8829800 7658573 7541920
2077 8588088 7503501 7131436
2078 8529204 7323147 7309454
2079 8493908 6919207 6860559
2080 8325856 7105885 7128122
2081 8869659 7083329 6881598
2082 8303105 7182696 7083439
2083 8694238 7143602 7192334
2084 8515454 7423328 7024640
2085 9050489 7655606 7246316
2086 8823072 7686135 7180235
2087 8758021 7905241 7613699
2088 8725811 7798546 7569422
2089 8234735 8019246 8042444
2090 8725190 7722697 7676637
2091 8264577 8011037 7835473
2092 8737368 8012589 8029484
2093 8158658 7863883 7872943
2094 8485910 7967502 8039703
2095 8480459 7634575 7547788
2096 8219433 7533050 7684242
2097 8430321 7167613 7308273
2098 8070381 7218896 7361925
2099 8535036 6976385 7192455
2100 8058900 7070218 7149982
2101 8377536 6960050 7242543
2102 8076385 6820086 6985544
2103 8112534 6998466 7415459
2104 8221495 7019593 7145720
2105 8270243 7288369 7393021
2106 8519943 7247170 7378581
2107 8057872 7545885 7678987
2108 8608297 7610348 7689762
2109 8234441 7832126 7800658
2110 8594266 7909401 8023941
2111 8228579 7775435 7831970
2112 8250724 7935006 8179877
2113 8342260 7704327 7809263
2114 7988274 7642247 7952333
2115 8248881 7293285 7688339
2116 7713571 7249769 7664290
2117 8191516 6991795 7491179
2118 7831082 6896723 7274706
2119 8070877 6851068 7366196
2120 7980025 6666266 6906405
2121 7995485 6762068 7197825
2122 8136040 6578246 6956579
2123 7798245 6789389 7186971
2124 8369468 6861828 7178624
2125 7896408 7085651 7334507
2126 8355717 7169665 7505963
2127 7940488 7229206 7469638
2128 8227815 7512648 7846920
2129 8204152 7511528 7714171
2130 8073126 7808761 8127764
2131 8181321 7524286 7952232
2132 7870053 7655837 7928037
2133 8286488 7381868 7846654
2134 7488661 7427522 8079571
2135 8375272 7507630 7734789
2136 8254999 7239659 7205293
2137 8205578 7270393 7555088
2138 7995360 6953186 7349574
2139 7909570 7069019 7436751
2140 8212992 6706994 7143957
2141 7495896 6657120 7298098
2142 8137098 6646423 7189607
2143 7995238 6859141 7102427
2144 8326261 7108154 7385751
2145 8286827 7094436 7151434
2146 8097016 7359667 7696560
2147 8316163 7284438 7493101
2148 7995288 7572482 7796011
2149 8262422 7352953 7802461
2150 7601974 7472545 7989377
2151 8016087 7607149 8254883
2152 8060406 7830137 7973098
2153 8166191 7727729 8092539
2154 8038802 7368861 7682298
2155 7899914 7443506 7892752
2156 8142910 7004634 7483306
2157 7659678 7053974 7491733
2158 8111937 6782402 7297101
2159 7736763 6831782 7149740
2160 8293831 6784335 7186300
2161 7849638 6614287 7046233
2162 7994593 6776429 7269445
2163 8158215 6647366 6952728
2164 7988149 6905927 7212455
2165 8430859 6881878 7081703
2166 8010608 7231913 7415298
2167 8382903 7202245 7581555
2168 7727414 7371222 7818114
2169 8030159 7580197 8147666
2170 7963625 7678045 8010215
2171 8029929 7764477 8166684
2172 8224052 7582011 7853754
2173 7869584 7615306 8047011
2174 8192201 7383933 7832549
2175 7681698 7438856 7865741
2176 8133053 7186699 7738776
2177 7625463 6905669 7430081
2178 8022824 6840924 7425293
2179 8040714 6847209 7068804
2180 8115596 7007081 7348910
2181 8263668 6729605 7006736
2182 7910448 6971524 7255395
2183 8454904 6824017 7026836
2184 7802517 6856372 7245479
2185 8171318 6835334 7293118
2186 7829420 6980489 7369742
2187 7971502 7336077 7896057
2188 8045133 7360604 7713447
2189 8173001 7828159 8002947
2190 8370696 7627047 7800870
2191 7893549 7775460 8082493
2192 8319290 7603096 7933182
2193 7871495 7668064 7893017
2194 8347957 7648841 8013737
2195 7813285 7337844 7762973
2196 8025735 7339470 7836248
2197 8145849 6990135 7345367
2198 7681378 7009506 7648194
2199 8126890 6671300 7173531
2200 7695359 6855837 7310437
2201 8198668 6723212 7268097
2202 7908569 6741409 6990577
2203 8358033 6875458 7152197
2204 8208916 6809317 6965674
2205 8094034 7066326 7403285
2206 8241223 7085020 7392322
2207 7861935 7338967 7726199
2208 8410568 7308409 7599242
2209 7813393 7600776 7973806
2210 8236434 7646279 8114821
2211 7921804 7579446 7835158
2212 8155438 7726814 8166441
2213 8097539 7502173 7775970
2214 7878457 7545898 8001661
2215 8082422 7218633 7788805
2216 7580352 7267832 7869421
2217 8162619 7111618 7660750
2218 7735138 7008957 7395693
2219 8158164 6836314 7348599
2220 7804044 6688664 7086325
2221 8107243 6893218 7237243
2222 8135955 6689785 6947835
2223 7943700 6878127 7240055
2224 8404758 6787119 7015726
2225 7999446 7038773 7206136
2226 8482312 7099884 7379268
2227 7924117 7324688 7532639
2228 8303817 7610020 7909855
2229 7992473 7608952 7838921
2230 8042131 7820155 8239900
2231 8249696 7609972 7879861
2232 7991169 7794580 8059921
2233 8332247 7617310 7937444
2234 7621974 7582982 8123666
2235 8158153 7403895 7941491
2236 7786473 7166332 7555684
2237 8004947 7163780 7713540
2238 7803970 6943140 7450341
2239 7878526 7069071 7611651
2240 7939898 6643678 7189867
2241 7705547 6734003 7239724
2242 8271173 6649516 7022223
2243 7935895 6850698 7025503
2244 8588910 6998313 7122936
2245 8206182 7128243 7118880
2246 8453483 7375786 7513852
2247 8466329 7334588 7311570
2248 8203204 7722774 7860097
2249 8313344 7527085 7806555
2250 7916217 7727680 7995681
2251 8334699 7644895 8017494
2252 7781694 7693368 8063635
2253 8317074 7833234 8198163
2254 7966152 7651091 7947728
2255 8152879 7741051 8018020
2256 8398831 7482504 7518956
2257 8033259 7378344 7665847
2258 8036735 6918722 7455881
2259 7603712 6909106 7445346
2260 8317271 6853143 7239673
2261 7905406 6826205 7065800
2262 8485191 7042562 7187540
2263 8223030 6963749 7017517
2264 8308180 7244531 7370164
2265 8504189 7174266 7156101
2266 8186903 7510972 7559063
2267 8669626 7531329 7541736
2268 8173958 7881071 7880513
2269 8746152 8016632 7999204
2270 8268349 7980244 7956250
2271 8219686 7950951 8268519
2272 8128278 7708672 8028992
2273 8011583 7884801 8245564
2274 8364263 7544200 7790807
2275 7952434 7704356 7870594
2276 8474276 7467369 7665624
2277 7817617 7393044 7743128
2278 8250743 7324065 7760860
2279 7949020 7201387 7432614
2280 8126123 7210779 7577202
2281 8184482 6892049 7156528
2282 7892171 7055228 7448426
2283 8280186 6805793 7186185
2284 8009721 7200563 7314652
2285 8672681 7412717 7459206
2286 8466663 7790490 7516047
2287 8825743 8035240 7844862
2288 8475790 7883864 7733321
2289 8488900 8105153 8091467
2290 8635651 8046734 7960772
2291 8128218 8243104 8395397
2292 8508698 8100107 8246122
2293 7969192 8110296 8300470
2294 8448169 8022705 8254389
2295 8040976 7868169 8073835
2296 8295062 7762022 8084178
2297 8212130 7343753 7546583
2298 8152590 7351315 7623534
2299 8408750 6963444 7172840
2300 8005420 7186662 7394687
2301 8451676 7058799 7254878
2302 8000610 7012671 7195698
2303 8493680 7221438 7299101
2304 8318468 7296630 7313151
2305 8272150 7522144 7667045
2306 8432706 7432979 7455693
2307 8229543 7864806 7868335
2308 8702851 7743141 7744564
2309 8250701 7920506 7858254
2310 8729504 8041844 7989726
2311 8189408 7950049 8005748
2312 8464361 8057999 8199826
2313 8489812 8024158 7959630
2314 8302304 8068006 8147153
2315 8534030 7767946 7809779
2316 8228624 7764558 7802558
2317 8437507 7383242 7636773
2318 7987308 7318788 7427071
2319 8460824 7152521 7372184
2320 8245448 7005509 7091210
2321 8310505 7042865 7255649
2322 8220973 6783746 6990589
2323 7841105 6970457 7373268
2324 8316831 7002119 7253230
2325 7944582 7289136 7544494
2326 8439326 7305130 7546422
2327 8009575 7396377 7560955
2328 8426055 7604077 7799524
2329 8291086 7595515 7688561
2330 8240487 7820494 8011160
2331 8315715 7559030 7690169
2332 7778059 7598275 8159960
2333 7944965 7237767 7953720
2334 7630407 7331141 7813217
2335 8203592 7210145 7692445
2336 7892039 7119777 7366526
2337 8199938 7096029 7477658
2338 8224132 6889256 7044975
2339 8081600 6973271 7211703
2340 8354888 6756980 6987569
2341 8019909 6977375 7170396
2342 8450755 6713845 6968249
2343 7872582 6694255 6905051
2344 8350224 6807941 7110385
2345 8134929 6920492 6974081
2346 8248363 7168848 7440388
2347 8359518 7216750 7290835
2348 8059045 7551469 7826420
2349 8341484 7466107 7732600
2350 7927321 7637746 7854317
2351 8336991 7654982 7954070
2352 8004076 7697898 7872339
2353 8233925 7638772 7968973
2354 8056751 7438621 7652232
2355 7990954 7517535 7878597
2356 8062555 7139579 7542497
2357 7882943 7201378 7517138
2358 8285152 6760029 7145532
2359 7725409 6700703 7132120
2360 8236803 6638337 7070485
2361 7838134 6510987 6852002
2362 8114074 6667046 7105179
2363 8112077 6573754 6851654
2364 8076196 6892441 7132212
2365 8371757 6778031 6986430
2366 7921724 7000615 7258876
2367 8338534 7014636 7415121
2368 7810182 7173782 7487875
2369 8247941 7384841 7796697
2370 8033941 7413780 7623693
2371 8132659 7630734 7998557
2372 8288736 7487514 7720508
2373 8104477 7739675 7946678
2374 8328488 7400031 7728543
2375 7755579 7367729 7752110
2376 8195700 7168362 7673374
2377 7782324 7009443 7384323
2378 7988915 6825239 7462777
2379 7913046 6535437 6985373
2380 7883171 6653021 7195665
2381 8163491 6442861 6817338
2382 7610521 6526217 7107186
2383 8172314 6422025 6900532
2384 7648063 6501864 6991104
2385 8153410 6696733 7208400
2386 7905544 6817727 7133737
2387 8285451 7200669 7461229
2388 8350669 7285160 7305340
2389 8167414 7618525 7786439
2390 8318356 7436112 7696064
2391 7687896 7563748 8034282
2392 8012434 7416284 8075309
2393 7583620 7363606 7938494
2394 8125756 7431221 7946201
2395 8064133 7236271 7454254
2396 8103698 7224709 7568321
2397 8217880 6923571 7137896
2398 7901161 7001922 7367774
2399 8198567 6655607 7124719
2400 7791419 6740800 7077408
2401 8372907 6583148 6892575
2402 8017053 6477913 6628448
2403 8348576 6671454 6899977
2404 8300286 6648847 6676759
2405 8244761 7005964 7106331
2406 8637178 6932807 6867237
2407 8301416 7180838 7012076
2408 8910423 7057812 6841661
2409 8505189 7232200 6849281
2410 9027009 7192349 6840047
2411 9229576 7702357 6700985
2412 9480605 7899313 6926824
2413 9399252 7591889 6631109
2414 9284523 7859801 6815958
2415 9705520 7716450 6623168
2416 9420946 7913644 6630425
2417 10164052 8059057 6594464
2418 10176771 8328892 6319466
2419 10571709 8517770 6536871
2420 10514518 8391793 6159651
2421 10589797 8450606 6215482
2422 10970248 8320764 5832368
2423 10607694 8585223 6128008
2424 11177998 8811256 6304220
2425 10839666 9219339 6497467
2426 11221786 9326353 6720644
2427 10879192 9102170 6508457
2428 10751897 9230551 6962679
2429 10615856 8936945 6691673
2430 10170455 8935960 7126992
2431 10241371 8634139 7001269
2432 9638498 8690998 7203825
2433 9663410 8511938 7606226
2434 8797350 8342602 7746658
2435 8617800 8145413 8242871
2436 8089057 7719638 7976372
2437 7615760 7449699 8333415
2438 7277463 6938347 8248376
2439 6751486 7210709 8748608
2440 7003879 6866575 8599469
2441 6445567 6864179 8561480
2442 6911853 6774263 8603857
2443 6553769 6807978 8461034
2444 6644024 6925505 8830170
2445 6686102 6762418 8489410
2446 6562039 7102476 8901608
2447 6802349 7045231 8864158
2448 6415871 7278196 9039484
2449 6943348 7382610 9148415
2450 6422363 7444855 9204288
2451 6882755 7554422 9317440
2452 6786798 7613983 9118125
2453 6946017 7825459 9352812
2454 7041763 7440651 8840506
2455 7163551 7794833 8872018
2456 7636558 7455530 8467173
2457 7220797 7349681 8139469
2458 7710661 7085780 8036491
2459 7367813 6893842 7661871
2460 7815896 6876039 7629139
2461 7780728 6644657 7180641
2462 7684325 6793144 7447033
2463 8130509 6671409 7071863
2464 7788356 6859261 7224861
2465 8320090 6826675 7203871
2466 7732538 6848257 7301242
2467 8106705 7032174 7634202
2468 7833844 7051400 7453508
2469 8120603 7448727 7788463
2470 8114722 7388775 7670460
2471 7907667 7590771 7962385
2472 8333946 7381739 7717752
2473 7807920 7567977 7924197
2474 8188863 7442647 7963721
2475 7763010 7283371 7684972
2476 8027572 7201303 7725115
2477 7809773 6808622 7344934
2478 7739747 6797890 7413201
2479 8050362 6560525 7072053
2480 7689986 6700323 7220108
2481 8216958 6555119 7026781
2482 7719775 6614206 7029887
2483 8223252 6628816 7093598
2484 8014327 6662527 6822936
2485 8367162 6938943 7090202
2486 8421545 6998349 7003137
2487 8064978 7273448 7548367
2488 8315984 7183063 7462385
2489 7871093 7432149 7767296
2490 8284376 7342056 7773157
2491 8032168 7498859 7605543
2492 8347064 7476459 7802042
2493 8044503 7255798 7516907
2494 8119564 7403239 7737279
2495 8353030 7264394 7404776
2496 7887408 7231425 7576769
2497 8362199 6846875 7099668
2498 7955035 6968265 7108613
2499 8362943 6730716 7072904
2500 7952647 6622975 6888614
2501 8154873 6672774 7152580
2502 7890519 6469675 6964463
2503 7686902 6619021 7314341
2504 8198546 6560941 6951127
2505 8157069 6960190 6990505
2506 8687343 6957534 7001856
2507 8167574 7082140 7138961
2508 8397930 7215125 7510980
2509 7986899 7119860 7412462
2510 8165881 7482777 7888702
2511 8241928 7472816 7673113
2512 7967477 7584583 7892397
2513 8367445 7434760 7666812
2514 7926568 7537864 7767819
2515 8380215 7438430 7732996
2516 8047672 7361933 7426970
2517 8399075 7118066 7353362
2518 8276056 6895281 6859113
2519 8185682 6937316 7177284
2520 8182874 6473119 6826533
2521 7911759 6728496 7028945
2522 8628809 6840456 6901491
2523 8104577 6850378 6888376
2524 8483018 6816058 7004332
2525 8214489 6841556 6916795
2526 8375661 7069449 7163078
2527 8400570 7065983 7009226
2528 8381004 7418027 7394760
2529 8760320 7432049 7270359
2530 8239126 7701025 7667955
2531 8602119 7701116 7733256
2532 8080928 7649218 7759031
2533 8269444 7556866 7918664
2534 8182982 7457016 7534528
2535 8268469 7400769 7661212
2536 8332189 7096310 7204808
2537 8023376 7103739 7313772
2538 8343817 6726057 7064138
2539 7941002 6922402 7142505
2540 8521643 6859765 7016227
2541 8098384 6800094 6861047
2542 8363971 6807183 7030080
2543 8394031 6795513 6768282
2544 8306574 7002613 7070703
2545 8630500 6972861 6844429
2546 8243181 7210242 7172035
2547 8746666 7299269 7246508
2548 8440884 7665789 7356415
2549 8833018 7745828 7587541
2550 8488938 7752262 7536429
2551 8560959 7895485 7836703
2552 8490939 7662359 7606243
2553 8267236 7838728 7866608
2554 8802017 7657029 7497945
2555 8293184 7714868 7624753
2556 8772322 7562893 7507066
2557 8098461 7260065 7362562
2558 8506147 7181237 7317332
2559 8429928 7022590 6886592
2560 8502114 7058230 6996582
2561 8618296 6863291 6785478
2562 8359964 7013149 6879368
2563 8902814 6857792 6593878
2564 8482622 7041698 6699469
2565 8911034 7025885 6791120
2566 8557295 7114355 6788980
2567 8773308 7485323 7289825
2568 8613970 7445858 7191975
2569 8305137 7585851 7606442
2570 8723409 7711130 7490089
2571 8292312 7921603 7792915
2572 8795036 7799137 7644789
2573 8451012 7801018 7580878
2574 8713326 7678083 7630928
2575 8402720 7487622 7363260
2576 8624935 7608496 7481956
2577 8740601 7263723 6989706
2578 8476975 7383112 7091681
2579 8876435 7040832 6777553
2580 8561865 7180367 6739018
2581 9183091 7255713 6754258
2582 8630028 7037844 6578441
2583 8871004 6978310 6677730
2584 8930147 7032127 6465941
2585 8821835 7394516 6923552
2586 9276609 7440036 6773222
2587 8839386 7773115 7148288
2588 9184198 7684077 7212357
2589 8807645 7913377 7302365
2590 9118824 7999378 7527650
2591 8955505 7981660 7332953
2592 8998365 8171174 7626685
2593 9122129 8066450 7341752
2594 8952927 8345271 7674287
2595 9216315 8066026 7491392
2596 8682339 7950371 7365490
2597 9190331 7603489 7140359
2598 8592670 7460361 7076425
2599 8788656 7449579 7312372
2600 8712883 7163270 6780184
2601 8721397 7142397 6871167
2602 9036631 6949087 6475495
2603 8664981 7196447 6742948
2604 9154192 7189609 6681869
2605 8716303 7385936 6760321
2606 9172856 7447778 6962823
2607 8699437 7400706 6956560
2608 9167103 7904608 7292854
2609 9289272 8044321 7178651
2610 9213195 8383083 7485034
2611 9331444 8176767 7501339
2612 8764295 8346689 7758054
2613 9368274 8312523 7641039
2614 8861869 8323464 7584788
2615 9171615 8183594 7682843
2616 8777745 7878627 7352023
2617 8717115 7567752 7346580
2618 8887498 7301725 6952951
2619 8730596 7576824 7092392
2620 9149265 7341779 6847527
2621 8700229 7477463 6873123
2622 9161040 7307033 6816372
2623 9095903 7561212 6563934
2624 9491421 7722937 6840758
2625 9276885 7635895 6673987
2626 9073019 7847705 7139796
2627 9285577 7829091 7085478
2628 8757520 8088330 7549177
2629 9030214 8044806 7655429
2630 8686119 8287008 7698604
2631 9215157 8264391 7707931
2632 8750399 8169750 7646565
2633 8714645 8226854 8057397
2634 8704524 8049850 7744825
2635 8399634 8097292 8042776
2636 8716957 7738888 7633428
2637 8305130 7711602 7576069
2638 8973845 7594335 7286671
2639 8647716 7672268 7176460
2640 9092624 7696244 7224372
2641 8731699 7336440 6923310
2642 8602008 7363644 7233102
2643 8532127 7059864 6958511
2644 8305794 7287539 7212981
2645 8727767 7197785 7126021
2646 8257786 7489057 7396768
2647 8739643 7588721 7488372
2648 8450242 7679114 7391638
2649 8595464 7800138 7797720
2650 8495565 7840850 7660688
2651 8408802 8203413 8137157
2652 8687441 7954467 7917119
2653 8079890 7987186 8059642
2654 8603318 7824694 7944675
2655 7910406 7786657 7981355
2656 8312741 7654351 7950563
2657 8100208 7462831 7569851
2658 8310434 7493928 7677978
2659 8411612 7229327 7262291
2660 8060743 7243602 7411414
2661 8340628 6865763 7159114
2662 8000522 7049679 7182053
2663 8331970 6929124 7235397
2664 8085449 7001595 7066692
2665 8384123 7171213 7352189
2666 8149035 7026730 7217668
2667 8190536 7354740 7569126
2668 8476437 7350796 7440713
2669 8020639 7635554 7821324
2670 8498707 7629512 7828856
2671 8055159 7790794 7847861
2672 8366985 7690778 8072282
2673 7993010 7667342 7918123
2674 8150052 7743789 8139446
2675 8170971 7445159 7714378
2676 8023650 7650388 7914811
2677 8283728 7219126 7564077
2678 7798884 7166994 7522971
2679 8056382 6854332 7475397
2680 7672567 6803354 7317835
2681 8187922 6828726 7238912
2682 8028130 6648972 6910997
2683 7923638 6650293 7137052
2684 8062080 6487045 6963234
2685 8059149 7117514 7318147
2686 8500209 6961586 7207071
2687 7967400 7217660 7421337
2688 8318710 7230966 7634749
2689 8011731 7360735 7596222
2690 8093490 7551552 8005043
2691 7997223 7386237 7776031
2692 7929803 7569936 8031854
2693 7982718 7351424 7975316
2694 7775259 7687564 8018731
2695 8301041 7451243 7867867
2696 7812630 7350806 7700742
2697 8124841 7196940 7687972
2698 7901910 6931566 7290912
2699 7951973 6926099 7370468
2700 8172962 6646270 7000880
2701 7699623 6773784 7308552
2702 8039196 6560315 7177342
2703 7507188 6616881 7217888
2704 7891066 6598087 7360150
2705 7698624 6715438 7236735
2706 7972252 6882685 7482374
2707 7840542 6801483 7412775
2708 7779796 7178738 7780594
2709 8083244 7146496 7603780
2710 7649561 7463743 7947784
2711 8107959 7387498 8041654
2712 7699349 7467844 8007806
2713 8207746 7711500 8135479
2714 8139271 7684919 7815507
2715 8053057 7618622 8055275
2716 8107389 7175171 7500651
2717 7808102 7130174 7554448
2718 8030021 6837154 7469993
2719 7438592 6839870 7536309
2720 8029639 6643418 7357855
2721 7636766 6648624 7183781
2722 7939578 6589508 7181454
2723 8010538 6451857 6710818
2724 8065096 6708086 6997501
2725 8267505 6651025 6943070
2726 7789262 6946619 7387552
2727 8445616 7156310 7435688
2728 7688898 7272940 7742843
2729 8213364 7405790 7851794
2730 8216269 7530556 7625626
2731 8345354 7770480 7916077
2732 8315730 7697194 7843007
2733 8007482 7778994 8083300
2734 8163489 7417101 7894024
2735 7507095 7568259 8162434
2736 7987565 7383647 8111875
2737 7529082 7199861 7865977
2738 8053242 7190351 7771244
2739 7851840 6884918 7375353
2740 7873448 6980890 7539985
2741 8135283 6729426 7082492
2742 7801416 6830249 7207857
2743 8221782 6648062 7104618
2744 7759431 6761569 7140797
2745 8290054 6847835 7258018
2746 7877642 6773584 7095738
2747 8227463 7098112 7429723
2748 8125637 7141587 7421302
2749 8050184 7531035 7782409
2750 8372681 7425528 7683258
2751 7682564 7626404 8123418
2752 8293932 7626636 8073673
2753 7776656 7694600 8075889
2754 8189271 7681559 8110065
2755 7854639 7430038 7836134
2756 7834142 7428826 8067898
2757 8061236 7160788 7558518
2758 7931915 7319365 7630534
2759 8229210 6901545 7301733
2760 7677007 6789184 7228287
2761 8315988 6797111 7197371
2762 7865821 6677564 6983979
2763 8035282 6712507 7273334
2764 8055324 6625301 6925111
2765 8037286 6991442 7348065
2766 8304537 6943252 7189301
2767 7922461 7318470 7588181
2768 8291048 7197718 7599366
2769 7908618 7495316 7721976
2770 8420119 7651133 7879111
2771 8165908 7678720 7729219
2772 8102886 7728928 8128337
2773 8124188 7557693 7863652
2774 7965711 7774472 8112214
2775 8279971 7573083 7905314
2776 7851320 7568814 7913257
2777 8184325 7159644 7645318
2778 7728254 6955839 7395540
2779 8062128 6937825 7487102
2780 8087712 6730710 7003778
2781 7999232 6867637 7333955
2782 7912362 6464256 7079306
2783 7878847 6780589 7190730
2784 8254622 6714968 7154630
2785 7731939 6816937 7248993
2786 8209007 6790773 7261908
2787 8085528 7041024 7180014
2788 8242022 7364533 7758024
2789 8158520 7370270 7593610
2790 8199553 7830482 7951416
2791 8418386 7547939 7730011
2792 7839362 7615791 8027344
2793 8350511 7509815 7882501
2794 7968583 7554711 7837071
2795 8182845 7437759 7965113
2796 7843987 7146036 7604564
2797 7984029 7265783 7752180
2798 8155338 7021440 7299281
2799 7975612 7109454 7380203
2800 8299027 6782939 7108589
2801 7796101 6882590 7171278
2802 8223926 6735780 7171700
2803 7818558 6663588 7012668
2804 8014822 6782904 7365432
2805 7887664 6738237 7185875
2806 7850785 7051207 7562863
2807 8397490 7209242 7388161
2808 7950577 7541673 7829705
2809 8406278 7540018 7832305
2810 7935566 7719126 7981092
2811 8426924 7804206 8149877
2812 8166622 7890089 8000249
2813 8235309 7973628 8310278
2814 8082048 7648560 7993187
2815 7969040 7754478 8116578
2816 8173911 7420066 7890178
2817 7833573 7540377 7864283
2818 8438254 7288178 7516655
2819 8008014 7212604 7354833
2820 8256736 7059317 7421886
2821 7830942 6871122 7286688
2822 8012269 7065753 7466604
2823 8225043 6858549 7127638
2824 8053870 7152055 7326836
2825 8747760 7232248 7105292
2826 8198890 7396219 7390516
2827 8579084 7397371 7500856
2828 8211829 7521640 7499826
2829 8704487 7842819 7720793
2830 8463346 7862629 7707701
2831 8336111 8064821 8091609
2832 8474038 7907135 7997833
2833 7956066 8073739 8330678
2834 8428754 7907114 8112285
2835 8238549 8161483 8098022
2836 8661298 8152385 8209335
2837 8212129 7885508 7912538
2838 8373161 7771826 7956814
2839 8324694 7466387 7591155
2840 8130928 7519426 7666653
2841 8530755 7244489 7395478
2842 7949962 7162512 7394778
2843 8209676 6899356 7378639
2844 7786050 6971138 7383844
2845 8291118 7148607 7537507
2846 8068776 7166071 7397895
2847 8344958 7541915 7649978
2848 8464278 7470453 7501312
2849 8445125 8008568 7877869
2850 8697908 7905853 7856791
2851 7974158 7984830 8180439
2852 8462059 7970283 8213642
2853 8094633 8054530 8164797
2854 8374287 8030708 8280361
2855 8117787 7707228 7864265
2856 8154382 7799243 8017966
2857 8408797 7571647 7607853
2858 8215409 7701335 7678917
2859 8708002 7473704 7398136
2860 8177567 7380053 7299954
2861 8733303 7277252 7241196
2862 8287376 7145243 7061418
2863 8311156 7157558 7398270
2864 8198232 6953465 7120492
2865 8207283 7330145 7427710
2866 8637784 7267550 7262569
2867 8217833 7498835 7445122
2868 8629246 7478602 7516475
2869 8111069 7588562 7638968
2870 8567938 7786532 7877973
2871 8203936 7831275 7845394
2872 8077403 7920240 8344602
2873 7990451 7674660 8121525
2874 7818228 7811829 8233398
2875 8287670 7501545 7849305
2876 7686297 7473185 7874061
2877 8248975 7245051 7682668
2878 7919875 7173409 7421279
2879 8274225 7239448 7514370
2880 8044838 6941986 7227671
2881 7888118 6932820 7456110
2882 7930669 6426619 7025814
2883 7449529 6468735 7180401
2884 8365892 6661213 6927669
2885 8066531 6980008 7018999
2886 8466453 7002320 7226768
2887 7935148 6989374 7262329
2888 8175177 7238502 7591659
2889 8193438 7221689 7433974
2890 7903311 7474543 7882733
2891 8244042 7345909 7690533
2892 7841662 7538197 7834356
2893 8321328 7430759 7879742
2894 7802095 7558194 7852571
2895 8188967 7588243 7969696
2896 8028708 7359384 7664557
2897 7936950 7280383 7802170
2898 8109655 6895331 7326990
2899 7905392 7065821 7397381
2900 8314384 6799375 7214961
2901 7661975 6670609 7166072
2902 8113050 6531526 7117559
2903 7778263 6498739 6926912
2904 8053694 6651937 7162176
2905 8137078 6614933 6859052
2906 8090791 6920168 7134970
2907 8400731 6777009 7027704
2908 7864633 7095010 7424321
2909 8308385 7166248 7570818
2910 7915024 7364870 7611949
2911 8290102 7396368 7816555
2912 7946494 7332759 7652788
2913 8091238 7447721 7857738
2914 7950987 7187907 7783722
2915 7648059 7412382 8046925
2916 8035120 7184176 7769969
2917 7690620 7241932 7688520
2918 8392536 7059021 7421077
2919 7811473 6780956 7111870
2920 8044342 6640540 7192939
2921 7963755 6428077 6784576
2922 7951902 6523288 6929537
2923 8037152 6310132 6826780
2924 7857283 6629653 6921487
2925 8238654 6456653 6944982
2926 7738185 6689409 7085614
2927 8346612 6903153 7151242
2928 8019588 7008026 7173991
2929 8165177 7262906 7659962
2930 8054050 7155355 7541895
2931 7772878 7376106 7917487
2932 8051934 7297226 7859063
2933 7721905 7547984 8003247
2934 8118626 7390680 7982689
2935 7449650 7203053 7895663
2936 7799865 7123772 8008641
2937 7866672 7135735 7533025
2938 8077602 7148417 7558175
2939 8017669 6757681 7197230
2940 7687213 6715346 7295284
2941 8018838 6365429 7000228
2942 7629863 6409067 6867748
2943 8102730 6340281 6924181
2944 7745472 6357196 6895910
2945 7908146 6603222 7203454
2946 8105066 6619723 6859409
2947 8104080 7072816 7330751
2948 8491353 7112847 7157028
2949 8162612 7334455 7416024
2950 8404169 7159577 7440179
2951 7913297 7316804 7578724
2952 8309709 7474261 7801052
2953 8154507 7413582 7514863
2954 8151633 7418254 7725569
2955 8402704 7230128 7265692
2956 8208988 7355273 7400670
2957 8725775 6977091 6827470
2958 8469864 6983761 6533943
2959 9121713 6758027 6304005
2960 8857615 6731711 5989300
2961 9314564 6827027 6088802
2962 9216763 6712957 5853800
2963 9198739 7128685 6248112
2964 9649845 7008369 5890286
2965 9573976 7500715 6125960
2966 10225975 7704742 6105214
2967 9837340 8094144 6400170
2968 10396248 8434911 6736008
2969 10201046 8731111 6713616
2970 10407675 8984650 7104074
2971 10581659 9098412 6922131
2972 10573939 9636555 7383641
2973 10913005 9622935 7338166
2974 10520364 9863929 7530188
2975 11026893 9761693 7415383
2976 10457540 9419237 7071793
2977 10776654 9137777 6976445
2978 10382948 8715764 6584971
2979 10289978 8537126 6650779
2980 10274796 8192803 6387997
2981 9803207 8273253 6696668
2982 9914479 7892649 6630426
2983 9045441 7869588 6971987
2984 8929430 7510612 7299725
2985 8121768 7430765 7508834
2986 8097194 7381839 7927866
2987 7677471 7181568 7891011
2988 7281603 7421459 8556417
2989 7196216 7331487 8698818
2990 6689754 7695635 9237976
2991 6930100 7585030 9365612
2992 6231593 7593959 9457481
2993 6735533 7551312 9484075
2994 6418560 7435692 9225432
2995 6595575 7410244 9378852
2996 6559976 7132475 9012504
2997 6480079 7304707 9125398
2998 6929958 7069047 8750929
2999 6466304 7079430 8795949
3000 7075389 6763656 8442571
3001 6613141 6682868 8281626
3002 7056509 6722488 8329544
3003 6826195 6556244 7955265
3004 7127725 6609377 7895160
3005 7596940 6642865 7530501
3006 7434575 6901772 7688182
3007 8145886 6921397 7487081
3008 7764919 7239332 7596647
3009 8190700 7132347 7699934
3010 7772385 7278500 7703574
3011 7951632 7370692 8021543
3012 7925633 7207495 7632005
3013 8046287 7568855 7923650
3014 8109456 7326777 7784534
3015 7577193 7376649 8042164
3016 7914437 7160071 7929675
3017 7637928 7154165 7676444
3018 8090046 6900141 7453790
3019 7916308 6656261 7023444
3020 7974828 6662635 7194157
3021 7887723 6444650 7018472
3022 7748181 6569810 7206742
3023 8115430 6374068 6842702
3024 7693194 6538280 7072212
3025 8007350 6530810 7214462
3026 7766071 6715716 7029329
3027 8169188 6857960 7289382
3028 7913168 6827704 7235255
3029 7980625 7156828 7651702
3030 8117663 7073710 7454893
3031 7675280 7188949 7826315
3032 8282907 7249521 7659701
3033 7757632 7482365 7885971
3034 8257141 7379760 7803799
3035 7943737 7339747 7575212
3036 8230995 7355074 7725044
3037 8033132 7042908 7363436
3038 7868884 7057444 7538962
3039 8246633 6831715 7090413
3040 7937825 6924165 7204964
3041 8200775 6514287 7001549
3042 7607970 6451999 6936428
3043 8097580 6471538 7058377
3044 7816438 6357370 6737841
3045 8147241 6600317 6987779
3046 8055614 6532850 6833349
3047 7952736 6805388 7202309
3048 8027937 6715933 7321856
3049 7861800 7205116 7499914
3050 8399048 7291193 7504974
3051 8051039 7333997 7449414
3052 8310955 7409239 7755132
3053 8086222 7385573 7545599
3054 8304303 7647932 7777100
3055 8423938 7369182 7405526
3056 8096526 7395598 7559912
3057 8369901 7047734 7324424
3058 7863464 6975823 7259985
3059 8231364 6835059 7317442
3060 7651433 6634030 7140469
3061 7977649 6550332 7104031
3062 8044766 6411317 6689870
3063 7973882 6562901 6940213
3064 8284954 6298246 6650432
3065 7999364 6654841 6842544
3066 8599260 6718748 6763661
3067 8213721 6963620 6906261
3068 8640209 7182922 7206880
3069 8367256 7263457 7217262
3070 8403401 7444839 7577292
3071 8394061 7241354 7356291
3072 8048760 7473673 7738690
3073 8308421 7264618 7592279
3074 7910856 7495024 7761339
3075 8344674 7424677 7762967
3076 7895745 7287271 7530199
3077 8226845 7218965 7526746
3078 8243350 6956906 7043339
3079 8181047 7018152 7255934
3080 8429322 6691963 6798661
3081 8261091 6788101 6789239
3082 8388933 6370559 6740815
3083 7850976 6504793 6789382
3084 8493792 6569434 6749359
3085 8208665 6726859 6740962
3086 8381612 6887920 7081292
3087 8372932 6833054 6875630
3088 8208861 7216158 7347130
3089 8479844 7080681 7110720
3090 8048479 7343458 7483311
3091 8471896 7357676 7624711
3092 8035442 7517660 7601438
3093 8599188 7580177 7644437
3094 8393875 7477653 7346920
3095 8395743 7584566 7617957
3096 8398784 7258915 7306062
3097 8034553 7285683 7521644
3098 8330653 6899873 7167471
3099 7922602 6919120 7112981
3100 8548114 6729351 6827040
3101 8137152 6630495 6653162
3102 8344151 6637438 6891360
3103 8110776 6442728 6631840
3104 8059109 6464273 6855387
3105 8368413 6576839 6724380
3106 8255044 7052784 7014980
3107 8777035 7024241 6903725
3108 8240108 7143466 7030041
3109 8690039 7177518 7179985
3110 8160221 7181638 7158163
3111 8731729 7676841 7482631
3112 8780008 7682276 7299229
3113 8528191 7806575 7669358
3114 8589348 7500183 7517059
3115 8138476 7686928 7708430
3116 8834601 7571375 7413314
3117 8503512 7539333 7175742
3118 8838306 7316102 7141851
3119 8412118 7009914 6827187
3120 8588438 7142891 7053390
3121 8742890 6888639 6604308
3122 8537063 7039842 6771656
3123 8894789 6801452 6538351
3124 8406681 6932857 6611152
3125 9004228 6827587 6549534
3126 8496468 6932496 6624404
3127 8883752 7198895 6806319
3128 9042379 7343064 6622820
3129 8823945 7526489 7104550
3130 8954213 7419855 6974358
3131 8765509 7888817 7340159
3132 9233697 7771269 7245855
3133 8557895 7739396 7392156
3134 9066746 7733704 7357234
3135 8733070 7706480 7222823
3136 8898047 7824703 7440432
3137 9048878 7572923 6914499
3138 8825117 7593770 7099814
3139 9150556 7293269 6807913
3140 8769373 7367682 6741877
3141 9338823 7095640 6521021
3142 8712065 7020176 6465633
3143 9093462 6949056 6483131
3144 8791838 6775097 6327629
3145 8765437 7082837 6754405
3146 8974058 6993581 6515043
3147 8842202 7361746 6821007
3148 9212994 7321692 6811948
3149 8723562 7648072 7088897
3150 9312633 7925515 7339000
3151 8774919 7958412 7362473
3152 9021419 8109644 7679729
3153 8846847 7893595 7450127
3154 8789401 8166857 7722925
3155 9259712 8007801 7277140
3156 8955135 8152762 7372016
3157 9279775 7823274 7229725
3158 8817872 7704228 7069623
3159 9158059 7690314 7154552
3160 8912565 7492235 6775716
3161 9089270 7472731 6824726
3162 9116372 7157481 6469273
3163 8908100 7310917 6693496
3164 9287312 7160280 6492080
3165 8851964 7452869 6749374
3166 9295342 7407385 6826029
3167 8786119 7497958 6857873
3168 9202064 7730876 7093595
3169 9118083 7736647 6907319
3170 9162298 8082406 7373605
3171 9281934 7966704 7165269
3172 8926182 8250730 7530860
3173 9344946 8113103 7433699
3174 8885963 8146878 7408225
3175 9230102 7980127 7463472
3176 8799168 7848259 7257893
3177 8878448 7894299 7562270
3178 8889169 7547010 7091680
3179 8609778 7569551 7277167
3180 8942960 7257981 6852885
3181 8410243 7141799 6897363
3182 9070659 7205893 6798238
3183 8737790 7280758 6755236
3184 9012523 7202419 6849614
3185 8809668 7113341 6607627
3186 8805344 7318319 6958093
3187 8951470 7320039 6840262
3188 8752318 7858688 7350872
3189 9040490 7752874 7340094
3190 8488057 7917976 7523547
3191 8893663 7911580 7743422
3192 8623928 8144501 7636100
3193 8839299 8097483 7873607
3194 8460861 7862622 7707656
3195 8376631 7909187 7911555
3196 8455123 7544159 7598898
3197 8126658 7593147 7646344
3198 8573927 7301079 7371310
3199 8104099 7302669 7262585
3200 8545105 7123149 7238234
3201 8062446 6856518 6932848
3202 8412061 6913845 7051889
3203 8358742 6751435 6789679
3204 8371847 7050732 6996906
3205 8700177 6958614 6791344
3206 8367623 7241253 7013230
3207 8669980 6994305 6998251
3208 8174525 7067932 7057649
3209 8636341 7336233 7343079
3210 8461266 7466577 7243978
3211 8355607 7557832 7751457
3212 8226993 7387377 7618301
3213 7889549 7565121 7944673
3214 8496476 7581227 7722753
3215 8024445 7697848 7845308
3216 8465707 7486898 7693503
3217 8190116 7526659 7489361
3218 8446240 7458730 7638423
3219 8207545 7029402 7115649
3220 8098303 6963297 7265802
3221 8272112 6646104 6897423
3222 7845095 6737386 7088968
3223 8324544 6529298 6850465
3224 7829138 6604652 6928518
3225 8304393 6579562 6927267
3226 7917019 6586167 6902308
3227 8145518 6847100 7286351
3228 8081024 6862970 7213306
3229 7962176 7180760 7550873
3230 8160100 7091307 7544052
3231 7856783 7396811 7627863
3232 8330398 7282234 7663132
3233 7783349 7275268 7682945
3234 8055304 7335635 7910548
3235 8185742 7481880 7508021
3236 8363470 7655257 7742713
3237 8241342 7286963 7517953
3238 7809514 7174177 7612112
3239 8289905 6894844 7182666
3240 7896045 6867605 7173710
3241 8118428 6595529 7139221
3242 7742297 6555581 6949348
3243 8229975 6652547 7023558
3244 8186898 6508589 6587816
3245 8174777 6663139 6971137
3246 8292461 6592133 6829110
3247 8065812 6862925 7063987
3248 8388246 6838413 7119853
3249 7849564 7034135 7329409
3250 8074330 7047591 7669333
3251 7732412 7228038 7728132
3252 8090773 7548209 7985063
3253 7986807 7334092 7716095
3254 7911774 7486118 7963817
3255 7992941 7125903 7701387
3256 7816424 7328716 7683726
3257 8370037 7183816 7533992
3258 7766132 7005899 7429035
3259 8053515 6834265 7491440
3260 7725036 6613227 7139793
3261 8027558 6673807 7155242
3262 8280929 6595931 6744623
3263 8132316 6809592 6965871
3264 8520148 6586747 6650458
3265 8031686 6718648 6903953
3266 8428059 6721827 6940273
3267 8084274 6815730 6955288
3268 8225776 6854882 7305877
3269 7944515 6913863 7184008
3270 8134021 7133877 7553472
3271 8244684 7191267 7460720
3272 7945106 7435016 7724909
3273 8259382 7279403 7693189
3274 7888205 7510914 7763761
3275 8165656 7352705 7893201
3276 7803763 7199332 7578880
3277 8092640 7214720 7657417
3278 7870617 6844798 7290765
3279 7961483 6967154 7336030
3280 8241298 6713928 7022806
3281 7893736 6807417 7085195
3282 8356084 6599045 6957107
3283 7835814 6594233 6890484
3284 8448621 6734959 6919457
3285 8224710 6707188 6711531
3286 8267064 6809959 7096351
3287 8271133 6671728 6817111
3288 8210242 7135171 7303164
3289 8478572 7081452 7205281
3290 8037468 7295021 7454281
3291 8349543 7177303 7566053
3292 7757280 7226412 7632706
3293 8344058 7532588 7832495
3294 8039549 7412402 7609712
3295 8185639 7570912 7843701
3296 8287211 7295023 7501687
3297 7852565 7298408 7757070
3298 8135418 6966117 7474832
3299 7558760 6949440 7506347
3300 8201100 6791670 7292217
3301 7819062 6601742 6938204
3302 8098325 6510386 7023678
3303 8006196 6330312 6656427
3304 7985099 6544549 6915420
3305 8317488 6467890 6675482
3306 7962601 6724591 6952018
3307 8357595 6592198 6901756
3308 7699608 6822946 7320389
3309 8121595 7016883 7591942
3310 7983616 7188927 7354370
3311 8469366 7542911 7555539
3312 8411986 7402115 7433034
3313 8197936 7660478 7809295
3314 8492711 7455077 7582860
3315 8021193 7603518 7770686
3316 8529374 7440617 7687761
3317 8065028 7356859 7456799
3318 8130456 7063854 7636831
3319 7830506 6873466 7301368
3320 7991970 6948452 7492709
3321 8003734 6537229 7001614
3322 7798851 6740927 7143898
3323 8379566 6667865 6923434
3324 7756719 6641876 7087584
3325 8188055 6520932 7128713
3326 7796560 6664612 7077200
3327 8193736 6890708 7288549
3328 8212737 7016500 7062879
3329 8216775 7227876 7428357
3330 8446097 7101473 7180687
3331 7986741 7324527 7535510
3332 8426917 7369640 7670327
3333 7795580 7473596 7834838
3334 8188118 7328631 7801867
3335 7878108 7321665 7625671
3336 8244734 7668533 7964311
3337 8201415 7289608 7510658
3338 7954516 7217472 7639600
3339 8293963 6788316 7102369
3340 7837082 6839241 7151890
3341 8276933 6550225 6931456
3342 7773365 6542275 6884278
3343 8261573 6542806 6950093
3344 7961015 6501625 6776462
3345 8048714 6639453 7094314
3346 8139070 6497442 6797402
3347 7811087 6768223 7200488
3348 8329643 6791468 7067845
3349 7872098 7122007 7363320
3350 8468128 7203690 7472471
3351 8158444 7432208 7475824
3352 8449319 7582157 7734721
3353 8306896 7501309 7541189
3354 8161593 7656649 7918419
3355 8370411 7389325 7570560
3356 7893917 7496465 7853924
3357 8305041 7285162 7622964
3358 7842818 7157858 7466667
3359 8272138 7082745 7497057
3360 7902282 6927975 7251628
3361 8180955 6940737 7301569
3362 8226185 6602872 6831290
3363 7978417 6693326 7008119
3364 8243983 6410889 6750947
3365 7862693 6613878 6929279
3366 8355121 6678125 7036586
3367 8041265 6912769 7003601
3368 8565839 7123348 7263679
3369 8251388 7101861 7180477
3370 8106970 7366605 7642216
3371 8487252 7327673 7453494
3372 7982983 7545915 7822321
3373 8357683 7409913 7770456
3374 7925789 7589543 7800896
3375 8423257 7662110 7932867
3376 8244158 7644575 7645286
3377 8455471 7816266 7840006
3378 8374020 7291585 7393373
3379 8094291 7287550 7492231
3380 8403239 6920823 7127079
3381 7963536 6957761 7124944
3382 8396181 6769604 7013774
3383 7939209 6616151 6773964
3384 8185395 6615110 7048325
3385 8058917 6602670 6874302
3386 7974534 6750413 7206080
3387 8243185 6661328 6949904
3388 8095786 7213700 7362033
3389 8632986 7328358 7405839
3390 8168062 7520945 7493460
3391 8615770 7636390 7708085
3392 8110095 7574333 7666034
3393 8299194 7798849 8029452
3394 8225456 7572331 7757137
3395 8062619 7790868 8048233
3396 8501599 7580905 7620020
3397 8278628 7804997 7682489
3398 8617722 7676042 7721847
3399 8140439 7537157 7543871
3400 8420430 7346725 7544109
3401 8194341 7157009 7178558
3402 8313118 7164540 7302826
3403 8444165 6919466 6970323
3404 8245028 7139524 7116828
3405 8686746 7019271 6997961
3406 8236641 7287249 7184780
3407 8713699 7288683 7256859
3408 8325971 7460395 7313454
3409 8719199 7691840 7520267
3410 8618191 7559030 7297089
3411 8482818 7779027 7746444
3412 8604140 7671348 7638938
3413 8181046 7925354 7980994
3414 8619311 7835799 7910671
3415 8144154 7905763 7900751
3416 8554496 7892957 8014965
3417 8239098 7775510 7727097
3418 8420685 7706393 7813926
3419 8450836 7270725 7242084
3420 8152797 7240767 7484973
3421 8453731 7034470 7148631
3422 7997361 7029000 7148096
3423 8623800 6751371 6808008
3424 8115576 6745683 6790206
3425 8414355 6846276 7030863
3426 8602548 7137892 6838554
3427 8658886 7484284 7223486
3428 8722067 7274634 7064583
3429 8457149 7644264 7383728
3430 8978086 7626550 7349046
3431 8324282 7769266 7583027
3432 8682896 7677800 7630083
3433 8285640 7710877 7665466
3434 8418702 7782373 7985982
3435 8398112 7638977 7620755
3436 8403312 7669635 7618830
3437 8499594 7282504 7379661
3438 7883349 7314900 7623023
3439 8401711 6989469 7302131
3440 7969590 6949241 7087208
3441 8322560 6826432 7143602
3442 8004138 6585182 6844613
3443 8191542 6738087 7090221
3444 8283834 6585755 6796165
3445 7891666 6745856 7049872
3446 8193884 6546706 7001145
3447 7875283 6883163 7180068
3448 8296905 6862397 7252834
3449 7881594 6963044 7212715
3450 8239587 7091327 7445644
3451 8133910 7090739 7270012
3452 7980172 7321465 7739978
3453 8398772 7316513 7459596
3454 7954288 7396313 7658854
3455 8339063 7300065 7598305
3456 8015229 7503178 7597896
3457 8319820 7252210 7593025
3458 8023941 7022460 7206325
3459 8212170 7048923 7365422
3460 8029458 6619287 6991567
3461 7855311 6595969 7027443
3462 8166545 6300926 6721230
3463 7768208 6430051 6791834
3464 8343989 6233456 6610841
3465 7825955 6284782 6679872
3466 8093991 6537765 7000636
3467 8108395 6625920 6912551
3468 8172904 6971902 7210937
3469 8365324 6822545 6982254
3470 8041076 7120138 7319168
3471 8618101 7095240 7222857
3472 8010084 7254877 7432275
3473 8333516 7264628 7691895
3474 7745648 7149260 7616783
3475 7978938 7332580 7894595
3476 7896156 7088122 7529761
3477 7950279 7238104 7666837
3478 8228457 6911237 7219106
3479 7876570 6915228 7224493
3480 8274576 6599004 7079650
3481 7745509 6426708 6798713
3482 7928041 6282737 7002809
3483 7703261 6142945 6719607
3484 7923747 6429710 6956545
3485 8151664 6314960 6714865
3486 7660624 6487967 7052332
3487 8092137 6353505 6908976
3488 7589825 6507841 7085300
3489 8273419 6757797 7189051
3490 8036732 6942520 7054734
3491 8549876 7296806 7337739
3492 8341939 7206771 7253332
3493 8048052 7401301 7721907
3494 8159230 7070193 7485463
3495 7708278 7177511 7596066
3496 8173597 6969204 7486493
3497 7908495 7224405 7434032
3498 8426265 7062205 7345606
3499 7744703 6623455 7165121
3500 7849005 6791801 7357217
3501 8039890 6505783 6918490
3502 7698333 6473353 7104830
3503 8053602 6189511 6800062
3504 7873858 6566500 6788826
3505 8431513 6467258 6758977
3506 7915148 6458210 6695359
3507 8282167 6616514 6913823
3508 8161277 6634745 6746754
3509 8061350 6918932 7286878
3510 8233254 6836750 7168114
3511 7951397 7167056 7402314
3512 8440764 7208461 7450813
3513 7790452 7243122 7603353
3514 8257081 7181843 7559768
3515 8047442 7189483 7351906
3516 8329057 7251758 7453886
3517 8356998 7026357 7105852
3518 8180585 7226449 7356496
3519 8681004 6921218 6815131
3520 8201816 6855564 6794924
3521 8732717 6502752 6508946
3522 8343834 6408617 6210974
3523 8701196 6314704 6151566
3524 8798960 6206164 5620487
3525 9008141 6376678 5793620
3526 9381739 6540458 5567666
3527 9353352 7012161 5915331
3528 9974910 7048418 5701403
3529 9661417 7505366 5985990
3530 10201416 7770785 6245453
3531 9939795 8009272 6254700
3532 10197487 8351404 6712927
3533 10195280 8450145 6628615
3534 10037766 8819965 7052338
3535 10668563 8793342 6716799
3536 10553429 9190181 6785744
3537 11154973 9151741 6624353
3538 10789521 9165779 6556184
3539 11162681 9237964 6715015
3540 10826964 9074541 6507431
3541 10776030 8890464 6507539
3542 10796236 8296368 5952479
3543 10447786 8283710 6114033
3544 10736617 7902751 5774701
3545 10199139 7830393 5810364
3546 10488706 7897087 6106368
3547 9888862 8029502 6290718
3548 9675743 8070317 7026263
3549 9082123 7915327 7202915
3550 8488761 8043539 7938515
3551 8391373 7768990 7952145
3552 7605605 7846767 8434259
3553 7688606 7677230 8742876
3554 6866648 7596583 8936695
3555 6831017 7402583 9330659
3556 6480942 7459450 9273361
3557 6580567 7558560 9484024
3558 6632003 7184787 9028470
3559 6378633 7100441 9032888
3560 6782268 6720978 8597979
3561 6291358 6708987 8612082
3562 6661513 6447923 8486819
3563 6325340 6384492 8256825
3564 6821950 6567968 8297296
3565 6766040 6466025 8060773
3566 6703932 6765773 8441793
3567 7235444 6667988 7919493
3568 7054187 6938758 8048617
3569 7561481 6874586 7956628
3570 7468704 7196858 7839727
3571 8008279 7312339 7919968
3572 7808894 7316199 7744333
3573 7966440 7486444 8020930
3574 7900798 7217415 7728292
3575 7817363 7395141 7903669
3576 8224848 7194619 7544631
3577 7646644 7134166 7664599
3578 8121444 6972446 7523977
3579 7635235 6771635 7273836
3580 8003629 6681595 7248736
3581 7971558 6497995 6767470
3582 8031648 6507775 6900135
3583 8042582 6183635 6663020
3584 7642986 6386493 6899919
3585 8260679 6216615 6622190
3586 7904262 6437944 6670122
3587 8121216 6480520 7039157
3588 7628319 6468910 7046126
3589 7987272 6816269 7376332
3590 7963122 6784802 7201843
3591 7727919 7064141 7607167
3592 8045100 6891111 7440991
3593 7704365 7205220 7688756
3594 8219277 7162185 7622117
3595 7813871 7214920 7546806
3596 8320508 7206264 7486395
3597 8026818 6975802 7215335
3598 8032760 7030899 7435669
3599 8126972 6642061 6992148
3600 7828249 6691113 7107472
3601 8262879 6404157 6844769
3602 7798346 6422460 6761335
3603 8167631 6233602 6767170
3604 7866283 6242973 6572733
3605 8063702 6322866 6779838
3606 8031910 6159270 6522374
3607 7963559 6342914 6729620
3608 8381640 6324650 6554949
3609 7842740 6720748 7083057
3610 8151666 6743847 7364856
3611 7690860 6937941 7430392
3612 8142183 7093632 7580314
3613 8038650 7097086 7354553
3614 8177813 7325218 7633893
3615 8119498 7220880 7580192
3616 7966678 7432936 7719850
3617 8372717 7110641 7398297
3618 7991703 7081125 7234440
3619 8447163 6831250 7089388
3620 8046399 6679040 6819238
3621 8151228 6632010 7018557
3622 8034113 6311830 6612476
3623 7913440 6318206 6775826
3624 8232745 6139499 6503575
3625 7986456 6562100 6721555
3626 8559635 6436618 6629217
3627 8009669 6577212 6618239
3628 8340957 6590998 6897785
3629 7940410 6743736 7026221
3630 8202433 7018213 7261260
3631 8667469 7099064 6870084
3632 8448220 7460396 7256237
3633 8693319 7386149 7335132
3634 8114207 7507439 7561509
3635 8463753 7342891 7541811
3636 7948493 7249438 7495372
3637 8183938 7252308 7673645
3638 8199040 7065043 7103522
3639 8119400 6922593 7241020
3640 8275909 6500014 6725075
3641 7851808 6651581 6985663
3642 8428455 6555324 6750716
3643 7946080 6500705 6697201
3644 8333057 6427489 6793816
3645 8173959 6479253 6510775
3646 8328253 6612068 6794545
3647 8351693 6483490 6632868
3648 8022095 6743575 7010480
3649 8470437 6766865 6966276
3650 8114761 7126935 7168700
3651 8693871 7176273 7160446
3652 8221357 7237928 7182548
3653 8486264 7398488 7492941
3654 8325666 7303865 7338575
3655 8408751 7544860 7556999
3656 8505104 7266995 7243385
3657 8198393 7378576 7380255
3658 8518979 7033906 7217010
3659 7942094 6942471 7098016
3660 8370250 6755830 7038825
3661 8029307 6478903 6657123
3662 8290558 6688662 6869592
3663 8484966 6516855 6448916
3664 8244366 6692570 6685166
3665 8538129 6342459 6403570
3666 8006757 6468364 6639513
3667 8463263 6418471 6680288
3668 8150313 6674929 6663258
3669 8416630 6856643 7011202
3670 8402777 6946368 6897947
3671 8346435 7229485 7274971
3672 8740336 7193414 6985090
3673 8543433 7519255 7234510
3674 8957373 7403250 7131237
3675 8467557 7517873 7191575
3676 8838248 7369194 7261765
3677 8480750 7283707 6984820
3678 8904043 7473068 7095909
3679 8604346 7015859 6810664
3680 8302303 7048000 7042521
3681 8838716 6764524 6491494
3682 8567812 6897001 6486357
3683 9078713 6794275 6421987
3684 8607110 6701771 6241966
3685 8723210 6580232 6469325
3686 8476986 6512018 6322637
3687 8712540 6880230 6633382
3688 8772661 6800047 6567665
3689 8467959 7169783 6894519
3690 9041832 7193575 6827801
3691 8572417 7419472 6957069
3692 9117577 7622549 7162542
3693 8778834 7546013 7020789
3694 8855847 7643986 7337178
3695 8909834 7596113 7053666
3696 8765561 7690011 7320224
3697 9000807 7323476 6908102
3698 8599244 7486751 6992389
3699 9137049 7272037 6815944
3700 8722102 7249200 6680194
3701 8920976 7074425 6772334
3702 8723243 6868211 6382332
3703 8703096 6850966 6585813
3704 8771732 6465816 6171462
3705 8580358 6807411 6462345
3706 9169979 6887652 6368828
3707 8652068 7168807 6650235
3708 9156597 7220578 6788920
3709 8876177 7280215 6566652
3710 9267208 7609481 6882137
3711 9277961 7606025 6700753
3712 9120571 7837842 7076668
3713 9246625 7720215 7024170
3714 8816498 7896559 7300039
3715 9344390 7818474 7175524
3716 8901518 7792109 7052337
3717 9233739 7720385 7147199
3718 8850328 7454658 6862946
3719 8992753 7665871 7066286
3720 9232400 7473955 6659376
3721 8794329 7255478 6775413
3722 9040236 6890181 6488238
3723 8614078 7056633 6539568
3724 9271991 6951222 6366698
3725 8763542 7010597 6366329
3726 9198719 7154392 6520524
3727 8979543 7066342 6430466
3728 9074701 7441945 6774043
3729 9462133 7488099 6552022
3730 9099283 7820815 6953027
3731 9569912 7862106 6963439
3732 9069368 8048676 7124343
3733 9404146 8096382 7335337
3734 9102210 8152098 7272399
3735 9207687 8183869 7523105
3736 9267079 8017768 7166527
3737 8926437 8040213 7451554
3738 9197292 7739392 7119039
3739 8821769 7731157 7145943
3740 9275848 7522176 6935692
3741 8823224 7465962 6722990
3742 9254354 7307442 6682116
3743 8925915 7113348 6503927
3744 8902021 7154883 6732720
3745 8916950 6860920 6450905
3746 8831351 7301188 6682480
3747 9301720 7208361 6547443
3748 8891254 7437306 6716258
3749 9237286 7526344 7036100
3750 8749015 7632230 7123484
3751 9017732 7840544 7399140
3752 8907703 7745906 7205596
3753 8726821 8016331 7718804
3754 8931142 7848638 7482763
3755 8630121 8053637 7624806
3756 8948528 7721095 7518454
3757 8354689 7704322 7439684
3758 8769598 7594690 7406208
3759 8483953 7381995 7145878
3760 8649242 7447322 7195299
3761 8651854 7116397 6880261
3762 8452408 7215508 7053875
3763 8799700 6902127 6678020
3764 8408024 6924602 6731420
3765 8828902 6772773 6636487
3766 8410202 6831522 6633740
3767 8683259 6980192 6888557
3768 8425581 6935826 6829452
3769 8537038 7331709 7163667
3770 8882069 7362733 7016203
3771 8524655 7658028 7335003
3772 8876233 7433806 7231739
3773 8229160 7487358 7433661
3774 8416225 7535759 7834910
3775 7943183 7416086 7647930
3776 8290913 7529362 7753641
3777 8238492 7366032 7470109
3778 7998144 7346784 7640825
3779 8532365 7234045 7265030
3780 8142803 7157307 7183002
3781 8446844 6821368 7090481
3782 8075170 6821556 6856578
3783 8300368 6533382 6825233
3784 8109176 6388945 6537224
3785 8317543 6709837 6834115
3786 8409826 6574477 6652159
3787 8008671 6766230 7034528
3788 8409252 6634618 6887259
3789 8041594 6950932 7057539
3790 8468048 7116724 7336629
3791 8121363 7283587 7329470
3792 8469477 7539396 7699129
3793 8224289 7363257 7518082
3794 8060310 7506972 7833855
3795 8230012 7325767 7660209
3796 7957044 7621263 7822661
3797 8416430 7309102 7607459
3798 7828114 7242421 7514616
3799 8171361 6975708 7423152
3800 7915350 6708759 6990794
3801 8071044 6673667 7089675
3802 8069861 6296926 6640693
3803 7827836 6438603 6890220
3804 8116498 6204700 6681903
3805 7803200 6403020 6756983
3806 8350869 6327572 6639674
3807 7869174 6479910 6764606
3808 8243437 6780509 7186243
3809 7916610 6758432 7090609
3810 8140348 7203162 7425162
3811 8465033 7250373 7280159
3812 8046478 7479077 7646141
3813 8437648 7229584 7477327
3814 8051056 7499264 7623659
3815 8318224 7336958 7694731
3816 8041960 7403540 7518732
3817 8428069 7581611 7737959
3818 8195216 7166603 7365364
3819 8042052 7224402 7528762
3820 8300602 6869476 7120482
3821 7914860 6799882 7062389
3822 8253262 6478872 6905105
3823 7769465 6334183 6756705
3824 8247766 6490879 6844554
3825 7994479 6551885 6722396
3826 8196807 6634242 6938863
3827 8181488 6500845 6804022
3828 7881502 6759642 7157712
3829 8397097 6803794 7077159
3830 8041878 7098087 7121995
3831 8515132 7128487 7369599
3832 8033812 7258847 7394251
3833 8455316 7495618 7646926
3834 8290848 7304522 7361940
3835 7988910 7296505 7732442
3836 8089409 7027614 7474870
3837 7795524 7120988 7550813
3838 8226327 6869713 7290901
3839 7822189 6885981 7247956
3840 8371222 6862740 7126870
3841 8013833 6648423 6849795
3842 7973782 6627524 7188719
3843 8031143 6414266 6841983
3844 8066680 6622922 6884144
3845 8256001 6279823 6630811
3846 7759132 6370216 6762053
3847 8147584 6376199 6936592
3848 7925651 6639833 6835204
3849 8404670 6886542 7095730
3850 8056711 6891038 7188421
3851 7994468 7220467 7615305
3852 8419519 7246933 7397362
3853 8118664 7511571 7633561
3854 8632900 7549133 7663537
3855 8059572 7627682 7698132
3856 8418315 7460808 7704660
3857 8010676 7350090 7578314
3858 8101125 7285737 7727933
3859 8171980 7046135 7218217
3860 8081824 7035654 7299006
3861 8293868 6655669 6934556
3862 7671640 6573808 7039008
3863 8158825 6370261 6899811
3864 7711479 6353482 6767287
3865 8135836 6399647 6861869
3866 7992026 6377411 6597837
3867 7978574 6544602 7001467
3868 8139070 6530141 6886873
3869 7901285 6962542 7249591
3870 8537816 7046768 7189063
3871 7975483 7230873 7473244
3872 8417793 7286521 7508949
3873 8142907 7330026 7436122
3874 8349911 7431658 7716158
3875 8356089 7295117 7278339
3876 7993533 7486259 7844105
3877 8172378 7251829 7658171
3878 7762971 7355546 7744004
3879 8362064 7065932 7364793
3880 7861167 6922695 7244164
3881 8151634 6743318 7290796
3882 8020939 6553730 6789438
3883 8280427 6750570 6881338
3884 8326035 6449651 6558371
3885 8150508 6684295 6787507
3886 8600014 6515465 6596661
3887 7994666 6631208 6789767
3888 8374139 6694074 7002551
3889 7930244 6822782 7046918
3890 8317302 7103641 7386452
3891 8263232 7033263 7079683
3892 8146278 7262574 7540560
3893 8103316 7014556 7399547
3894 7774922 7277936 7707170
3895 8351255 7267431 7572460
3896 7733131 7251595 7632002
3897 8375258 7378382 7676887
3898 8066486 7279012 7399841
3899 8059278 7117190 7576252
3900 8096489 6859768 7200177
3901 7931704 6916627 7271299
3902 8149831 6541584 7029931
3903 7699223 6637480 7078686
3904 8253086 6431790 6866189
3905 7877226 6408700 6631860
3906 8329845 6626720 6866951
3907 8288163 6563843 6617490
3908 8102401 6806467 7059994
3909 8475735 6794116 6855300
3910 8217718 7246600 7223460
3911 8763849 7236544 7137782
3912 8015015 7279802 7437684
3913 8212306 7329539 7721902
3914 7890961 7340082 7668992
3915 8046151 7385528 7874554
3916 8059021 7173530 7534972
3917 7975800 7430235 7693114
3918 8513775 7230881 7388362
3919 8101756 7246180 7287345
3920 8562178 6965783 7087135
3921 8050106 6836184 6976701
3922 8270193 6737904 7053914
3923 8090134 6544720 6705261
3924 8272988 6726517 6862694
3925 8397215 6441383 6570060
3926 7984987 6599504 6850229
3927 8396114 6455582 6803203
3928 8024698 6849402 6943839
3929 8463132 6985635 7192263
3930 8130358 7073258 7127674
3931 8508808 7432578 7454002
3932 8485577 7350980 7317876
3933 8220752 7508771 7673994
3934 8606435 7503737 7548617
3935 7998694 7549829 7712548
3936 8299872 7377835 7802119
3937 7816864 7331528 7680697
3938 8078205 7302632 7808124
3939 7903363 7064553 7500091
3940 7938377 7081277 7501644
3941 8282219 6825012 7060762
3942 7772727 6711494 7095188
3943 8258994 6544083 6952025
3944 8034177 6734227 6850207
3945 8514962 6709193 6909204
3946 8171609 6575693 6702412
3947 8237758 6768920 7020868
3948 8255145 6658604 6854108
3949 8030013 6928689 7193707
3950 8580703 7277653 7291737
3951 8074125 7607922 7709265
3952 8570130 7669938 7806192
3953 8118127 7644174 7735445
3954 8273146 7651504 7994646
3955 8119785 7478529 7697093
3956 8123017 7691470 7898407
3957 8390426 7392145 7587378
3958 7948449 7546066 7806311
3959 8470311 7239699 7516766
3960 7925837 7248075 7507534
3961 8348797 7104763 7409351
3962 8123438 6906639 7013181
3963 8259238 6825263 7074803
3964 8588293 6682749 6544867
3965 8304048 6838323 6878931
3966 8556076 6790904 6864150
3967 8140269 7035160 7013544
3968 8683305 7011607 7014377
3969 8227995 7189032 7116824
3970 8596046 7505839 7535951
3971 8385722 7481203 7400735
3972 8371331 7755336 7737315
3973 8588775 7730358 7665741
3974 8371321 8150493 8001353
3975 8783719 7880809 7751669
3976 8205987 7841026 7753701
3977 8664422 7721215 7728210
3978 8349362 7580792 7479931
3979 8519350 7595570 7558676
3980 8398351 7138405 7156003
3981 8403799 7345436 7245261
3982 8708939 7042923 6945335
3983 8085037 7004059 7139078
3984 8470993 6837755 7009015
3985 8099544 6919840 6899791
3986 8495025 6987336 7141633
3987 8333721 6939663 6854973
3988 8488575 7246031 7216484
3989 8745083 7239972 6997914
3990 8518685 7640816 7454462
3991 8882763 7611203 7412204
3992 8501381 7871488 7453424
3993 8828688 7743156 7592292
3994 8276295 7692672 7622439
3995 8440559 7835420 7940402
3996 8398515 7617510 7626709
3997 8272789 7724426 7781542
3998 8526473 7402332 7522467
3999 8050353 7406229 7557337
4000 8503458 7186467 7387232
4001 7914194 6897222 7200541
4002 8318368 6833993 7153410
4003 8134791 6668881 6771191
4004 8228819 6685488 6926662
4005 8313052 6457954 6632918
4006 8035850 6684476 6873977
4007 8604025 6676867 6733730
4008 8287283 6910385 6778635
4009 8609887 6865085 7009436
4010 8168593 7022560 7092568
4011 8442040 7313450 7452605
4012 8398285 7377149 7311830
4013 8339810 7561265 7596845
4014 8566934 7372391 7424986
4015 8073768 7593132 7713648
4016 8404033 7365565 7668857
4017 7922211 7333689 7595433
4018 8382031 7369058 7600830
4019 7952080 7012632 7311318
4020 8059445 6974792 7414952
4021 8124182 6638092 6978617
4022 7890664 6686557 7102341
4023 8334352 6414597 6696440
4024 7964919 6482580 6693619
4025 8382128 6345064 6667821
4026 8009134 6317278 6539737
4027 8464075 6686865 6740323
4028 8342628 6685418 6679131
4029 8008896 6800628 7206316
4030 8267101 6756234 6979369
4031 8106003 7090086 7246641
4032 8400588 7032628 7276801
4033 7850940 7155403 7400977
4034 8270251 7197217 7571354
4035 7924402 7172625 7481547
4036 8146869 7382242 7761613
4037 8102111 7128476 7429104
4038 7920882 7255942 7656103
4039 8192092 6995856 7431333
4040 7784969 7044699 7414180
4041 8145585 6778278 7280159
4042 7695504 6535251 6968132
4043 8044323 6414681 7005722
4044 7832754 6334929 6741474
4045 8103350 6613932 6853733
4046 8389475 6348715 6489653
4047 7929967 6501142 6758603
4048 8397975 6429391 6742236
4049 7874651 6582218 6811688
4050 8359171 6741936 7027314
4051 8061609 6949629 7091321
4052 8255559 7149193 7426120
4053 8252746 7198729 7344149
4054 8016096 7413286 7768682
4055 8208577 7251781 7647741
4056 7792461 7361952 7751160
4057 8220991 7180099 7643233
4058 7636687 7028667 7525561
4059 8033830 6999853 7545427
4060 8075471 6838822 7039669
4061 8083791 6844154 7232357
4062 8047937 6482609 6866603
4063 7706275 6429221 6970427
4064 8135530 6166547 6609214
4065 7742813 6386986 6748890
4066 8460555 6555539 6791781
4067 8077757 6455131 6564494
4068 8370132 6600894 6756996
4069 8300552 6535289 6569053
4070 8264838 6950764 7113195
4071 8367944 6821733 7007243
4072 7982918 7312805 7535455
4073 8399419 7191566 7483400
4074 7936473 7183091 7397093
4075 8299000 7142972 7478979
4076 7988952 7109401 7465177
4077 8053612 7299425 7786945
4078 8011970 6930393 7305002
4079 7919652 7048313 7435848
4080 8187671 6651444 7041052
4081 7617865 6583453 7157550
4082 8246752 6457046 6876838
4083 8064675 6628719 6737924
4084 8296222 6513859 6814491
4085 8123083 6330444 6481898
4086 8198847 6407727 6630393
4087 8291506 6121649 6337345
4088 8140453 6440378 6548663
4089 8854709 6627015 6422504
4090 8556842 6940332 6506132
4091 9232765 7067720 6484410
4092 8992435 7135152 6303229
4093 9283765 7316094 6626039
4094 9161659 7304786 6456136
4095 9202513 7670556 6786060
4096 9664409 7474552 6318659
4097 9422589 7733121 6426970
4098 10177051 7667332 6231757
4099 9778114 7844327 6214743
4100 10359723 7981538 6235067
4101 10114757 7787110 5882942
4102 10468929 8115982 6039548
4103 10808713 7990084 5535004
4104 10690994 8206724 5755547
4105 10951880 8068662 5718858
4106 10473594 8263532 5898584
4107 11074525 8548437 6163056
4108 10715864 8720216 6108806
4109 10988474 8777691 6339865
4110 10975073 8688478 5992596
4111 11084797 8988348 6280839
4112 11320746 8952019 6178317
4113 10628910 9016715 6607309
4114 10703041 8730028 6758443
4115 9887569 8743483 7062261
4116 10077817 8737310 7379175
4117 9214345 8463767 7467232
4118 8692936 8349881 8227954
4119 8279305 7854005 8031140
4120 7715673 7782716 8381949
4121 7830648 7359101 8146047
4122 7077875 7338698 8412973
4123 7239477 7007140 8514963
4124 6549423 6940873 8536428
4125 6800057 6885618 8711362
4126 6531330 6820201 8566811
4127 6716102 7046233 8816431
4128 6849910 6672339 8355621
4129 6625350 6906933 8556791
4130 7039379 6890940 8431789
4131 6649568 7245084 8795392
4132 7150216 7375898 8922683
4133 6868306 7493808 8799688
4134 7252640 7681654 9052348
4135 7002715 7468766 8816954
4136 7110951 7676706 8936605
4137 7720488 7443895 8318561
4138 7343431 7407280 8251169
4139 7809822 7056058 7973436
4140 7339994 6944561 7740914
4141 7864490 6898441 7709103
4142 7643629 6774072 7375212
4143 8012331 6757901 7252000
4144 8072784 6449610 6817816
4145 7787034 6543763 7083065
4146 8085742 6351712 6896148
4147 7566517 6524710 7120637
4148 8188571 6483125 7024200
4149 7738868 6574926 7048977
4150 8129284 6852590 7343511
4151 8136281 7005740 7212814
4152 8263328 7260205 7435104
4153 8332504 7109131 7296489
4154 7900774 7339675 7675442
4155 8209076 7208378 7621595
4156 7884262 7388518 7641867
4157 8388893 7344476 7615412
4158 7840034 7100427 7507679
4159 7964372 6967799 7537227
4160 7904041 6662176 7106256
4161 7951484 6806139 7149352
4162 8264601 6436040 6743738
4163 7809324 6467296 6858390
4164 8375527 6258139 6565151
4165 7889702 6265825 6447975
4166 8310968 6274246 6622522
4167 8040139 6260206 6515497
4168 8002927 6420692 6920218
4169 7924707 6379225 6882238
4170 7907263 6882670 7276827
4171 8384031 6784465 7022926
